# == pyFAI calibration ==
# Distance Sample to Detector: 0.11507480176033233 m
# PONI: 5.477e-03, 4.716e-03 m
# Rotations: 0.004686 0.005536 0.000000 rad
# 
# == Fit2d calibration ==
# Distance Sample-beamCenter: 115.078 mm
# Center: x=55.690, y=81.516 pix
# Tilt: 0.416 deg  TiltPlanRot: 130.247 deg
# 
# Detector Detector	 Spline= None	 PixelSize= 7.500e-05, 7.500e-05 m
#    Detector has a mask: False 
#    Detector has a dark current: False 
#    detector has a flat field: False 
# 
# Wavelength: 4.833e-11 m
# Mask applied: None
# Dark current applied: None
# Flat field applied: None
# Polarization factor: None
# Normalization factor: None
#
# 2th_deg	 I
1.131209591E+00  3.651957321E+01
1.145950384E+00  4.607256699E+01
1.160691176E+00  5.194570923E+01
1.175431968E+00  5.695665741E+01
1.190172760E+00  6.310086441E+01
1.204913552E+00  6.853991699E+01
1.219654344E+00  7.417658997E+01
1.234395136E+00  7.822511292E+01
1.249135928E+00  8.202014160E+01
1.263876720E+00  8.854097748E+01
1.278617513E+00  9.230842590E+01
1.293358305E+00  9.436614227E+01
1.308099097E+00  9.399200439E+01
1.322839889E+00  9.632343292E+01
1.337580681E+00  9.929859924E+01
1.352321473E+00  1.021925888E+02
1.367062265E+00  1.039943619E+02
1.381803057E+00  1.048928909E+02
1.396543850E+00  1.064318161E+02
1.411284642E+00  1.078042679E+02
1.426025434E+00  1.084462051E+02
1.440766226E+00  1.094901581E+02
1.455507018E+00  1.105538864E+02
1.470247810E+00  1.115939484E+02
1.484988602E+00  1.132226410E+02
1.499729394E+00  1.126247787E+02
1.514470186E+00  1.136344757E+02
1.529210979E+00  1.143357315E+02
1.543951771E+00  1.160232697E+02
1.558692563E+00  1.170204544E+02
1.573433355E+00  1.174634933E+02
1.588174147E+00  1.181746368E+02
1.602914939E+00  1.183835831E+02
1.617655731E+00  1.201803894E+02
1.632396523E+00  1.225583420E+02
1.647137315E+00  1.246216965E+02
1.661878108E+00  1.247208252E+02
1.676618900E+00  1.239197617E+02
1.691359692E+00  1.240006256E+02
1.706100484E+00  1.250985413E+02
1.720841276E+00  1.264180298E+02
1.735582068E+00  1.274178543E+02
1.750322860E+00  1.279870300E+02
1.765063652E+00  1.282843781E+02
1.779804444E+00  1.285023651E+02
1.794545237E+00  1.292368622E+02
1.809286029E+00  1.299553223E+02
1.824026821E+00  1.313231506E+02
1.838767613E+00  1.318414154E+02
1.853508405E+00  1.317181091E+02
1.868249197E+00  1.310485535E+02
1.882989989E+00  1.311794891E+02
1.897730781E+00  1.313014374E+02
1.912471573E+00  1.316484985E+02
1.927212366E+00  1.324565582E+02
1.941953158E+00  1.326822815E+02
1.956693950E+00  1.336915894E+02
1.971434742E+00  1.346602631E+02
1.986175534E+00  1.365229950E+02
2.000916326E+00  1.379862671E+02
2.015657118E+00  1.382713623E+02
2.030397910E+00  1.390609741E+02
2.045138702E+00  1.394408722E+02
2.059879495E+00  1.394239960E+02
2.074620287E+00  1.396215210E+02
2.089361079E+00  1.397259064E+02
2.104101871E+00  1.402306061E+02
2.118842663E+00  1.408867798E+02
2.133583455E+00  1.420540161E+02
2.148324247E+00  1.439919434E+02
2.163065039E+00  1.444025879E+02
2.177805831E+00  1.442675934E+02
2.192546624E+00  1.444798431E+02
2.207287416E+00  1.442624512E+02
2.222028208E+00  1.455365295E+02
2.236769000E+00  1.455734863E+02
2.251509792E+00  1.458610535E+02
2.266250584E+00  1.459304810E+02
2.280991376E+00  1.461550446E+02
2.295732168E+00  1.462028198E+02
2.310472960E+00  1.459270172E+02
2.325213753E+00  1.464227448E+02
2.339954545E+00  1.482332764E+02
2.354695337E+00  1.488056488E+02
2.369436129E+00  1.488269348E+02
2.384176921E+00  1.480623627E+02
2.398917713E+00  1.477246552E+02
2.413658505E+00  1.480413818E+02
2.428399297E+00  1.484862976E+02
2.443140089E+00  1.486605377E+02
2.457880882E+00  1.486122742E+02
2.472621674E+00  1.481833191E+02
2.487362466E+00  1.481898956E+02
2.502103258E+00  1.484678650E+02
2.516844050E+00  1.486830139E+02
2.531584842E+00  1.485670776E+02
2.546325634E+00  1.481870117E+02
2.561066426E+00  1.484010620E+02
2.575807219E+00  1.483815308E+02
2.590548011E+00  1.488051758E+02
2.605288803E+00  1.482149658E+02
2.620029595E+00  1.478596191E+02
2.634770387E+00  1.474461517E+02
2.649511179E+00  1.482178192E+02
2.664251971E+00  1.483418121E+02
2.678992763E+00  1.481846161E+02
2.693733555E+00  1.477695770E+02
2.708474348E+00  1.479369507E+02
2.723215140E+00  1.475875854E+02
2.737955932E+00  1.473279572E+02
2.752696724E+00  1.465769806E+02
2.767437516E+00  1.467409363E+02
2.782178308E+00  1.473321381E+02
2.796919100E+00  1.473485718E+02
2.811659892E+00  1.471285248E+02
2.826400684E+00  1.462610168E+02
2.841141477E+00  1.461353912E+02
2.855882269E+00  1.458055725E+02
2.870623061E+00  1.458846893E+02
2.885363853E+00  1.461712952E+02
2.900104645E+00  1.460179291E+02
2.914845437E+00  1.459716949E+02
2.929586229E+00  1.450611420E+02
2.944327021E+00  1.444868317E+02
2.959067813E+00  1.439413300E+02
2.973808606E+00  1.430225067E+02
2.988549398E+00  1.428209839E+02
3.003290190E+00  1.429459534E+02
3.018030982E+00  1.432926025E+02
3.032771774E+00  1.435660400E+02
3.047512566E+00  1.433527679E+02
3.062253358E+00  1.435483551E+02
3.076994150E+00  1.430370483E+02
3.091734942E+00  1.431605988E+02
3.106475735E+00  1.429857483E+02
3.121216527E+00  1.431244965E+02
3.135957319E+00  1.431340637E+02
3.150698111E+00  1.428352661E+02
3.165438903E+00  1.430379486E+02
3.180179695E+00  1.431279907E+02
3.194920487E+00  1.435209198E+02
3.209661279E+00  1.434008789E+02
3.224402071E+00  1.435305328E+02
3.239142864E+00  1.439142914E+02
3.253883656E+00  1.436091766E+02
3.268624448E+00  1.431437225E+02
3.283365240E+00  1.430391998E+02
3.298106032E+00  1.426967316E+02
3.312846824E+00  1.426301422E+02
3.327587616E+00  1.427532501E+02
3.342328408E+00  1.429908752E+02
3.357069200E+00  1.433624420E+02
3.371809993E+00  1.430234985E+02
3.386550785E+00  1.426682892E+02
3.401291577E+00  1.432492676E+02
3.416032369E+00  1.432301788E+02
3.430773161E+00  1.427928925E+02
3.445513953E+00  1.424188690E+02
3.460254745E+00  1.420164948E+02
3.474995537E+00  1.418314362E+02
3.489736329E+00  1.412062988E+02
3.504477122E+00  1.399475708E+02
3.519217914E+00  1.389422760E+02
3.533958706E+00  1.371295471E+02
3.548699498E+00  1.365566864E+02
3.563440290E+00  1.362141876E+02
3.578181082E+00  1.358227539E+02
3.592921874E+00  1.354136810E+02
3.607662666E+00  1.354838257E+02
3.622403458E+00  1.358900146E+02
3.637144251E+00  1.355874481E+02
3.651885043E+00  1.360794067E+02
3.666625835E+00  1.366758270E+02
3.681366627E+00  1.380700989E+02
3.696107419E+00  1.396795654E+02
3.710848211E+00  1.421775970E+02
3.725589003E+00  1.443437042E+02
3.740329795E+00  1.453774109E+02
3.755070587E+00  1.454227295E+02
3.769811380E+00  1.448333435E+02
3.784552172E+00  1.442687225E+02
3.799292964E+00  1.435323639E+02
3.814033756E+00  1.429894867E+02
3.828774548E+00  1.423617096E+02
3.843515340E+00  1.415462494E+02
3.858256132E+00  1.403807831E+02
3.872996924E+00  1.392433929E+02
3.887737717E+00  1.384703369E+02
3.902478509E+00  1.386299591E+02
3.917219301E+00  1.384135895E+02
3.931960093E+00  1.374488068E+02
3.946700885E+00  1.366055603E+02
3.961441677E+00  1.362091217E+02
3.976182469E+00  1.365178833E+02
3.990923261E+00  1.360877380E+02
4.005664053E+00  1.358791656E+02
4.020404846E+00  1.349116669E+02
4.035145638E+00  1.345540771E+02
4.049886430E+00  1.338992767E+02
4.064627222E+00  1.337868195E+02
4.079368014E+00  1.337694397E+02
4.094108806E+00  1.337100220E+02
4.108849598E+00  1.337468567E+02
4.123590390E+00  1.332701263E+02
4.138331182E+00  1.328479156E+02
4.153071975E+00  1.325706024E+02
4.167812767E+00  1.323246918E+02
4.182553559E+00  1.317944183E+02
4.197294351E+00  1.305417023E+02
4.212035143E+00  1.301403503E+02
4.226775935E+00  1.301363525E+02
4.241516727E+00  1.299610748E+02
4.256257519E+00  1.296126862E+02
4.270998311E+00  1.290494995E+02
4.285739104E+00  1.294331818E+02
4.300479896E+00  1.290806580E+02
4.315220688E+00  1.289844513E+02
4.329961480E+00  1.282326813E+02
4.344702272E+00  1.279092941E+02
4.359443064E+00  1.273517227E+02
4.374183856E+00  1.273663101E+02
4.388924648E+00  1.278237381E+02
4.403665440E+00  1.276484375E+02
4.418406233E+00  1.272909927E+02
4.433147025E+00  1.267412796E+02
4.447887817E+00  1.259251251E+02
4.462628609E+00  1.257660751E+02
4.477369401E+00  1.255090866E+02
4.492110193E+00  1.255597153E+02
4.506850985E+00  1.252587433E+02
4.521591777E+00  1.253805237E+02
4.536332569E+00  1.255213013E+02
4.551073362E+00  1.252605591E+02
4.565814154E+00  1.255356674E+02
4.580554946E+00  1.255343704E+02
4.595295738E+00  1.251949081E+02
4.610036530E+00  1.247781067E+02
4.624777322E+00  1.246239471E+02
4.639518114E+00  1.249793854E+02
4.654258906E+00  1.244015579E+02
4.668999698E+00  1.248078003E+02
4.683740491E+00  1.252086182E+02
4.698481283E+00  1.253127289E+02
4.713222075E+00  1.243663101E+02
4.727962867E+00  1.231976242E+02
4.742703659E+00  1.232828217E+02
4.757444451E+00  1.239563980E+02
4.772185243E+00  1.241602478E+02
4.786926035E+00  1.235694656E+02
4.801666827E+00  1.229451218E+02
4.816407620E+00  1.226813354E+02
4.831148412E+00  1.224618149E+02
4.845889204E+00  1.227135010E+02
4.860629996E+00  1.224598160E+02
4.875370788E+00  1.226854172E+02
4.890111580E+00  1.222127380E+02
4.904852372E+00  1.219396057E+02
4.919593164E+00  1.214122696E+02
4.934333956E+00  1.209329147E+02
4.949074749E+00  1.209063644E+02
4.963815541E+00  1.211886520E+02
4.978556333E+00  1.208998489E+02
4.993297125E+00  1.209949722E+02
5.008037917E+00  1.206450577E+02
5.022778709E+00  1.201687317E+02
5.037519501E+00  1.194696503E+02
5.052260293E+00  1.186016693E+02
5.067001086E+00  1.186601944E+02
5.081741878E+00  1.191548462E+02
5.096482670E+00  1.195148392E+02
5.111223462E+00  1.192013016E+02
5.125964254E+00  1.189438095E+02
5.140705046E+00  1.191164474E+02
5.155445838E+00  1.195644913E+02
5.170186630E+00  1.191967545E+02
5.184927422E+00  1.190054092E+02
5.199668215E+00  1.182774048E+02
5.214409007E+00  1.181579590E+02
5.229149799E+00  1.180211258E+02
5.243890591E+00  1.182041397E+02
5.258631383E+00  1.186174469E+02
5.273372175E+00  1.186816330E+02
5.288112967E+00  1.190869751E+02
5.302853759E+00  1.188682938E+02
5.317594551E+00  1.187261429E+02
5.332335344E+00  1.183780823E+02
5.347076136E+00  1.184837265E+02
5.361816928E+00  1.185743942E+02
5.376557720E+00  1.186648483E+02
5.391298512E+00  1.177821579E+02
5.406039304E+00  1.173161392E+02
5.420780096E+00  1.175843048E+02
5.435520888E+00  1.176012421E+02
5.450261680E+00  1.173875122E+02
5.465002473E+00  1.170767059E+02
5.479743265E+00  1.168142776E+02
5.494484057E+00  1.172756500E+02
5.509224849E+00  1.171923676E+02
5.523965641E+00  1.171089554E+02
5.538706433E+00  1.171148376E+02
5.553447225E+00  1.170839691E+02
5.568188017E+00  1.179770737E+02
5.582928809E+00  1.183185425E+02
5.597669602E+00  1.184901505E+02
5.612410394E+00  1.182288971E+02
5.627151186E+00  1.183322525E+02
5.641891978E+00  1.185085754E+02
5.656632770E+00  1.186588211E+02
5.671373562E+00  1.186483231E+02
5.686114354E+00  1.186148911E+02
5.700855146E+00  1.178620682E+02
5.715595938E+00  1.176062775E+02
5.730336731E+00  1.170282364E+02
5.745077523E+00  1.171730423E+02
5.759818315E+00  1.173607101E+02
5.774559107E+00  1.175481873E+02
5.789299899E+00  1.173897705E+02
5.804040691E+00  1.170929565E+02
5.818781483E+00  1.168289566E+02
5.833522275E+00  1.164815369E+02
5.848263067E+00  1.158525620E+02
5.863003860E+00  1.160878143E+02
5.877744652E+00  1.164736557E+02
5.892485444E+00  1.168467712E+02
5.907226236E+00  1.169459381E+02
5.921967028E+00  1.172039185E+02
5.936707820E+00  1.174260178E+02
5.951448612E+00  1.175306778E+02
5.966189404E+00  1.177074738E+02
5.980930196E+00  1.176858902E+02
5.995670989E+00  1.172958984E+02
6.010411781E+00  1.170259628E+02
6.025152573E+00  1.170362244E+02
6.039893365E+00  1.168902054E+02
6.054634157E+00  1.172061691E+02
6.069374949E+00  1.172777100E+02
6.084115741E+00  1.175238113E+02
6.098856533E+00  1.174987411E+02
6.113597325E+00  1.170818100E+02
6.128338118E+00  1.167429733E+02
6.143078910E+00  1.162258606E+02
6.157819702E+00  1.163584747E+02
6.172560494E+00  1.166082840E+02
6.187301286E+00  1.165921936E+02
6.202042078E+00  1.164027634E+02
6.216782870E+00  1.166446686E+02
6.231523662E+00  1.173059692E+02
6.246264454E+00  1.176726913E+02
6.261005247E+00  1.181610794E+02
6.275746039E+00  1.179637375E+02
6.290486831E+00  1.181723404E+02
6.305227623E+00  1.175348129E+02
6.319968415E+00  1.173967209E+02
6.334709207E+00  1.171490021E+02
6.349449999E+00  1.169687653E+02
6.364190791E+00  1.164845657E+02
6.378931584E+00  1.168287582E+02
6.393672376E+00  1.166371841E+02
6.408413168E+00  1.166702271E+02
6.423153960E+00  1.167802353E+02
6.437894752E+00  1.170564957E+02
6.452635544E+00  1.170401840E+02
6.467376336E+00  1.172578659E+02
6.482117128E+00  1.172120667E+02
6.496857920E+00  1.176918411E+02
6.511598713E+00  1.182086258E+02
6.526339505E+00  1.188724823E+02
6.541080297E+00  1.190830612E+02
6.555821089E+00  1.188406448E+02
6.570561881E+00  1.179798584E+02
6.585302673E+00  1.178555527E+02
6.600043465E+00  1.178491287E+02
6.614784257E+00  1.180065155E+02
6.629525049E+00  1.180529709E+02
6.644265842E+00  1.182744064E+02
6.659006634E+00  1.181392822E+02
6.673747426E+00  1.181702881E+02
6.688488218E+00  1.178720169E+02
6.703229010E+00  1.180693512E+02
6.717969802E+00  1.184382782E+02
6.732710594E+00  1.186791992E+02
6.747451386E+00  1.183359985E+02
6.762192178E+00  1.184006653E+02
6.776932971E+00  1.184783249E+02
6.791673763E+00  1.186262054E+02
6.806414555E+00  1.185304489E+02
6.821155347E+00  1.181208649E+02
6.835896139E+00  1.181787796E+02
6.850636931E+00  1.179344788E+02
6.865377723E+00  1.185724869E+02
6.880118515E+00  1.188045502E+02
6.894859307E+00  1.190820389E+02
6.909600100E+00  1.189962082E+02
6.924340892E+00  1.191245804E+02
6.939081684E+00  1.193391800E+02
6.953822476E+00  1.188103714E+02
6.968563268E+00  1.187865143E+02
6.983304060E+00  1.188208618E+02
6.998044852E+00  1.189738846E+02
7.012785644E+00  1.188390121E+02
7.027526436E+00  1.189471054E+02
7.042267229E+00  1.187455444E+02
7.057008021E+00  1.192235641E+02
7.071748813E+00  1.191834030E+02
7.086489605E+00  1.191770630E+02
7.101230397E+00  1.188218842E+02
7.115971189E+00  1.184675674E+02
7.130711981E+00  1.183735657E+02
7.145452773E+00  1.187164536E+02
7.160193565E+00  1.188929291E+02
7.174934358E+00  1.194255371E+02
7.189675150E+00  1.194317017E+02
7.204415942E+00  1.197014008E+02
7.219156734E+00  1.196500320E+02
7.233897526E+00  1.189626236E+02
7.248638318E+00  1.189949341E+02
7.263379110E+00  1.188321838E+02
7.278119902E+00  1.194992828E+02
7.292860694E+00  1.197530670E+02
7.307601487E+00  1.198437500E+02
7.322342279E+00  1.196399612E+02
7.337083071E+00  1.201861496E+02
7.351823863E+00  1.204061737E+02
7.366564655E+00  1.203855438E+02
7.381305447E+00  1.201542511E+02
7.396046239E+00  1.203968430E+02
7.410787031E+00  1.207757187E+02
7.425527823E+00  1.207587967E+02
7.440268616E+00  1.202509689E+02
7.455009408E+00  1.206666870E+02
7.469750200E+00  1.211611786E+02
7.484490992E+00  1.211843262E+02
7.499231784E+00  1.210942917E+02
7.513972576E+00  1.210400009E+02
7.528713368E+00  1.216576843E+02
7.543454160E+00  1.218874283E+02
7.558194953E+00  1.224123077E+02
7.572935745E+00  1.225115738E+02
7.587676537E+00  1.227447510E+02
7.602417329E+00  1.229926224E+02
7.617158121E+00  1.228128204E+02
7.631898913E+00  1.227404556E+02
7.646639705E+00  1.226213608E+02
7.661380497E+00  1.236799393E+02
7.676121289E+00  1.241820374E+02
7.690862082E+00  1.242753448E+02
7.705602874E+00  1.239380798E+02
7.720343666E+00  1.242386551E+02
7.735084458E+00  1.245332794E+02
7.749825250E+00  1.251759567E+02
7.764566042E+00  1.261673508E+02
7.779306834E+00  1.273735428E+02
7.794047626E+00  1.283776703E+02
7.808788418E+00  1.296096649E+02
7.823529211E+00  1.311939850E+02
7.838270003E+00  1.327164764E+02
7.853010795E+00  1.339317169E+02
7.867751587E+00  1.352170258E+02
7.882492379E+00  1.359319153E+02
7.897233171E+00  1.363310089E+02
7.911973963E+00  1.364336090E+02
7.926714755E+00  1.358017578E+02
7.941455547E+00  1.348666840E+02
7.956196340E+00  1.332694244E+02
7.970937132E+00  1.323142242E+02
7.985677924E+00  1.312587280E+02
8.000418716E+00  1.306321259E+02
8.015159508E+00  1.300285187E+02
8.029900300E+00  1.299534302E+02
8.044641092E+00  1.297015686E+02
8.059381884E+00  1.295545959E+02
8.074122676E+00  1.303028107E+02
8.088863469E+00  1.319134521E+02
8.103604261E+00  1.341965637E+02
8.118345053E+00  1.358411102E+02
8.133085845E+00  1.372248383E+02
8.147826637E+00  1.397698212E+02
8.162567429E+00  1.419470215E+02
8.177308221E+00  1.421968994E+02
8.192049013E+00  1.421694336E+02
8.206789805E+00  1.428155670E+02
8.221530598E+00  1.455384216E+02
8.236271390E+00  1.477842255E+02
8.251012182E+00  1.512722321E+02
8.265752974E+00  1.554364014E+02
8.280493766E+00  1.593350372E+02
8.295234558E+00  1.621730652E+02
8.309975350E+00  1.637876587E+02
8.324716142E+00  1.642316589E+02
8.339456934E+00  1.630223846E+02
8.354197727E+00  1.601620789E+02
8.368938519E+00  1.554691162E+02
8.383679311E+00  1.514067078E+02
8.398420103E+00  1.468593445E+02
8.413160895E+00  1.435285645E+02
8.427901687E+00  1.407095795E+02
8.442642479E+00  1.389682922E+02
8.457383271E+00  1.373894043E+02
8.472124063E+00  1.363327332E+02
8.486864856E+00  1.357464294E+02
8.501605648E+00  1.348220062E+02
8.516346440E+00  1.347316895E+02
8.531087232E+00  1.351485748E+02
8.545828024E+00  1.360774536E+02
8.560568816E+00  1.360341492E+02
8.575309608E+00  1.352368774E+02
8.590050400E+00  1.346401520E+02
8.604791192E+00  1.353107605E+02
8.619531985E+00  1.359444122E+02
8.634272777E+00  1.362205353E+02
8.649013569E+00  1.359430695E+02
8.663754361E+00  1.356662903E+02
8.678495153E+00  1.364596710E+02
8.693235945E+00  1.366328125E+02
8.707976737E+00  1.373731079E+02
8.722717529E+00  1.379236908E+02
8.737458321E+00  1.383002319E+02
8.752199114E+00  1.381919708E+02
8.766939906E+00  1.382348175E+02
8.781680698E+00  1.387262878E+02
8.796421490E+00  1.391679230E+02
8.811162282E+00  1.398173676E+02
8.825903074E+00  1.405285645E+02
8.840643866E+00  1.414870911E+02
8.855384658E+00  1.424360352E+02
8.870125451E+00  1.429344635E+02
8.884866243E+00  1.437442017E+02
8.899607035E+00  1.439258118E+02
8.914347827E+00  1.444571686E+02
8.929088619E+00  1.446611176E+02
8.943829411E+00  1.453003845E+02
8.958570203E+00  1.460834961E+02
8.973310995E+00  1.463333740E+02
8.988051787E+00  1.462122345E+02
9.002792580E+00  1.462459412E+02
9.017533372E+00  1.465035858E+02
9.032274164E+00  1.472456818E+02
9.047014956E+00  1.481128845E+02
9.061755748E+00  1.485329285E+02
9.076496540E+00  1.492857361E+02
9.091237332E+00  1.491385040E+02
9.105978124E+00  1.489196625E+02
9.120718916E+00  1.485014038E+02
9.135459709E+00  1.487505951E+02
9.150200501E+00  1.492014313E+02
9.164941293E+00  1.496504059E+02
9.179682085E+00  1.498634338E+02
9.194422877E+00  1.505170135E+02
9.209163669E+00  1.512780609E+02
9.223904461E+00  1.515909882E+02
9.238645253E+00  1.520295563E+02
9.253386045E+00  1.523454285E+02
9.268126838E+00  1.533723297E+02
9.282867630E+00  1.535097961E+02
9.297608422E+00  1.536016388E+02
9.312349214E+00  1.540752258E+02
9.327090006E+00  1.543438568E+02
9.341830798E+00  1.552440491E+02
9.356571590E+00  1.552939301E+02
9.371312382E+00  1.559515839E+02
9.386053174E+00  1.570126648E+02
9.400793967E+00  1.579891968E+02
9.415534759E+00  1.590566864E+02
9.430275551E+00  1.592473145E+02
9.445016343E+00  1.598337555E+02
9.459757135E+00  1.609971313E+02
9.474497927E+00  1.614817047E+02
9.489238719E+00  1.618937683E+02
9.503979511E+00  1.629934540E+02
9.518720303E+00  1.653076630E+02
9.533461096E+00  1.686306000E+02
9.548201888E+00  1.729436798E+02
9.562942680E+00  1.783406372E+02
9.577683472E+00  1.842798920E+02
9.592424264E+00  1.909900360E+02
9.607165056E+00  1.995469818E+02
9.621905848E+00  2.083437195E+02
9.636646640E+00  2.146397705E+02
9.651387432E+00  2.153294067E+02
9.666128225E+00  2.093455048E+02
9.680869017E+00  1.988124237E+02
9.695609809E+00  1.872433929E+02
9.710350601E+00  1.778416290E+02
9.725091393E+00  1.708233948E+02
9.739832185E+00  1.664505920E+02
9.754572977E+00  1.647339935E+02
9.769313769E+00  1.645275269E+02
9.784054561E+00  1.640933380E+02
9.798795354E+00  1.640612793E+02
9.813536146E+00  1.643850403E+02
9.828276938E+00  1.662915649E+02
9.843017730E+00  1.687384644E+02
9.857758522E+00  1.719536896E+02
9.872499314E+00  1.750466766E+02
9.887240106E+00  1.785937653E+02
9.901980898E+00  1.811673584E+02
9.916721690E+00  1.838699493E+02
9.931462483E+00  1.853292389E+02
9.946203275E+00  1.861479340E+02
9.960944067E+00  1.843175201E+02
9.975684859E+00  1.822286987E+02
9.990425651E+00  1.797701569E+02
1.000516644E+01  1.769296722E+02
1.001990724E+01  1.740086365E+02
1.003464803E+01  1.702110291E+02
1.004938882E+01  1.666684113E+02
1.006412961E+01  1.648136902E+02
1.007887040E+01  1.622933502E+02
1.009361120E+01  1.601843567E+02
1.010835199E+01  1.578589172E+02
1.012309278E+01  1.565874939E+02
1.013783357E+01  1.554687042E+02
1.015257436E+01  1.547218933E+02
1.016731516E+01  1.541110382E+02
1.018205595E+01  1.537461853E+02
1.019679674E+01  1.531770782E+02
1.021153753E+01  1.524806671E+02
1.022627832E+01  1.526709290E+02
1.024101912E+01  1.533901520E+02
1.025575991E+01  1.546293488E+02
1.027050070E+01  1.550507507E+02
1.028524149E+01  1.550471954E+02
1.029998229E+01  1.543212128E+02
1.031472308E+01  1.540505524E+02
1.032946387E+01  1.534876709E+02
1.034420466E+01  1.530091400E+02
1.035894545E+01  1.526235199E+02
1.037368625E+01  1.523047485E+02
1.038842704E+01  1.515926056E+02
1.040316783E+01  1.508202667E+02
1.041790862E+01  1.509717865E+02
1.043264941E+01  1.508478088E+02
1.044739021E+01  1.506511993E+02
1.046213100E+01  1.498250732E+02
1.047687179E+01  1.498868866E+02
1.049161258E+01  1.494568024E+02
1.050635337E+01  1.487950745E+02
1.052109417E+01  1.482520142E+02
1.053583496E+01  1.487892609E+02
1.055057575E+01  1.490902252E+02
1.056531654E+01  1.490142365E+02
1.058005734E+01  1.483748322E+02
1.059479813E+01  1.480297546E+02
1.060953892E+01  1.478872375E+02
1.062427971E+01  1.480948334E+02
1.063902050E+01  1.487875214E+02
1.065376130E+01  1.498068390E+02
1.066850209E+01  1.501823578E+02
1.068324288E+01  1.499689789E+02
1.069798367E+01  1.489827576E+02
1.071272446E+01  1.488406219E+02
1.072746526E+01  1.492608948E+02
1.074220605E+01  1.495194702E+02
1.075694684E+01  1.497120514E+02
1.077168763E+01  1.493782501E+02
1.078642843E+01  1.497287598E+02
1.080116922E+01  1.498007965E+02
1.081591001E+01  1.503505096E+02
1.083065080E+01  1.509403229E+02
1.084539159E+01  1.512190247E+02
1.086013239E+01  1.516184845E+02
1.087487318E+01  1.508723450E+02
1.088961397E+01  1.512111359E+02
1.090435476E+01  1.516776886E+02
1.091909555E+01  1.524340973E+02
1.093383635E+01  1.530161896E+02
1.094857714E+01  1.533908539E+02
1.096331793E+01  1.538597107E+02
1.097805872E+01  1.542263794E+02
1.099279951E+01  1.542794037E+02
1.100754031E+01  1.535846100E+02
1.102228110E+01  1.530621033E+02
1.103702189E+01  1.530801697E+02
1.105176268E+01  1.534507446E+02
1.106650348E+01  1.538787994E+02
1.108124427E+01  1.540421448E+02
1.109598506E+01  1.538325195E+02
1.111072585E+01  1.533837738E+02
1.112546664E+01  1.530906525E+02
1.114020744E+01  1.530099792E+02
1.115494823E+01  1.526745758E+02
1.116968902E+01  1.529308777E+02
1.118442981E+01  1.528712616E+02
1.119917060E+01  1.529128418E+02
1.121391140E+01  1.526522980E+02
1.122865219E+01  1.528441925E+02
1.124339298E+01  1.525886993E+02
1.125813377E+01  1.521749573E+02
1.127287456E+01  1.517475281E+02
1.128761536E+01  1.521570740E+02
1.130235615E+01  1.529824829E+02
1.131709694E+01  1.535157928E+02
1.133183773E+01  1.538774567E+02
1.134657853E+01  1.537336426E+02
1.136131932E+01  1.539571991E+02
1.137606011E+01  1.536070709E+02
1.139080090E+01  1.535668182E+02
1.140554169E+01  1.537252502E+02
1.142028249E+01  1.541287537E+02
1.143502328E+01  1.545284729E+02
1.144976407E+01  1.547095947E+02
1.146450486E+01  1.549964752E+02
1.147924565E+01  1.554023438E+02
1.149398645E+01  1.563809662E+02
1.150872724E+01  1.567276611E+02
1.152346803E+01  1.574523163E+02
1.153820882E+01  1.587181702E+02
1.155294961E+01  1.601529541E+02
1.156769041E+01  1.614010315E+02
1.158243120E+01  1.628296967E+02
1.159717199E+01  1.654373169E+02
1.161191278E+01  1.683134155E+02
1.162665358E+01  1.709143066E+02
1.164139437E+01  1.737584076E+02
1.165613516E+01  1.769859009E+02
1.167087595E+01  1.817842407E+02
1.168561674E+01  1.853045197E+02
1.170035754E+01  1.886127777E+02
1.171509833E+01  1.896149139E+02
1.172983912E+01  1.888901672E+02
1.174457991E+01  1.856019897E+02
1.175932070E+01  1.818489380E+02
1.177406150E+01  1.766012115E+02
1.178880229E+01  1.716671448E+02
1.180354308E+01  1.679938507E+02
1.181828387E+01  1.650966644E+02
1.183302467E+01  1.637547455E+02
1.184776546E+01  1.617358704E+02
1.186250625E+01  1.608527222E+02
1.187724704E+01  1.599022064E+02
1.189198783E+01  1.599867554E+02
1.190672863E+01  1.601273346E+02
1.192146942E+01  1.606401672E+02
1.193621021E+01  1.604426727E+02
1.195095100E+01  1.599680481E+02
1.196569179E+01  1.594683838E+02
1.198043259E+01  1.594521637E+02
1.199517338E+01  1.596194305E+02
1.200991417E+01  1.596594238E+02
1.202465496E+01  1.599667969E+02
1.203939575E+01  1.602481537E+02
1.205413655E+01  1.600173187E+02
1.206887734E+01  1.598777466E+02
1.208361813E+01  1.602182770E+02
1.209835892E+01  1.604871674E+02
1.211309972E+01  1.611264343E+02
1.212784051E+01  1.612244873E+02
1.214258130E+01  1.616137085E+02
1.215732209E+01  1.613858337E+02
1.217206288E+01  1.613162994E+02
1.218680368E+01  1.613747711E+02
1.220154447E+01  1.617645569E+02
1.221628526E+01  1.620128632E+02
1.223102605E+01  1.626157379E+02
1.224576684E+01  1.631852570E+02
1.226050764E+01  1.632969818E+02
1.227524843E+01  1.629651031E+02
1.228998922E+01  1.633385010E+02
1.230473001E+01  1.643262482E+02
1.231947080E+01  1.650192108E+02
1.233421160E+01  1.654775696E+02
1.234895239E+01  1.655727692E+02
1.236369318E+01  1.657481842E+02
1.237843397E+01  1.664861145E+02
1.239317477E+01  1.672648315E+02
1.240791556E+01  1.682135620E+02
1.242265635E+01  1.688855591E+02
1.243739714E+01  1.695211792E+02
1.245213793E+01  1.693682098E+02
1.246687873E+01  1.693163605E+02
1.248161952E+01  1.694614410E+02
1.249636031E+01  1.696949463E+02
1.251110110E+01  1.696900024E+02
1.252584189E+01  1.696758270E+02
1.254058269E+01  1.693709259E+02
1.255532348E+01  1.689972992E+02
1.257006427E+01  1.682785187E+02
1.258480506E+01  1.682564697E+02
1.259954585E+01  1.678466949E+02
1.261428665E+01  1.672993622E+02
1.262902744E+01  1.664301758E+02
1.264376823E+01  1.657975311E+02
1.265850902E+01  1.658934479E+02
1.267324982E+01  1.655747223E+02
1.268799061E+01  1.651701660E+02
1.270273140E+01  1.649949799E+02
1.271747219E+01  1.649042816E+02
1.273221298E+01  1.648206482E+02
1.274695378E+01  1.643956451E+02
1.276169457E+01  1.641641235E+02
1.277643536E+01  1.638346558E+02
1.279117615E+01  1.641153564E+02
1.280591694E+01  1.647167511E+02
1.282065774E+01  1.645690308E+02
1.283539853E+01  1.637078857E+02
1.285013932E+01  1.630438843E+02
1.286488011E+01  1.629692535E+02
1.287962091E+01  1.632679596E+02
1.289436170E+01  1.635350800E+02
1.290910249E+01  1.637409821E+02
1.292384328E+01  1.640549164E+02
1.293858407E+01  1.641440277E+02
1.295332487E+01  1.640644836E+02
1.296806566E+01  1.644329224E+02
1.298280645E+01  1.647542725E+02
1.299754724E+01  1.652727203E+02
1.301228803E+01  1.654456787E+02
1.302702883E+01  1.662579956E+02
1.304176962E+01  1.671885376E+02
1.305651041E+01  1.684315643E+02
1.307125120E+01  1.697069550E+02
1.308599199E+01  1.706341705E+02
1.310073279E+01  1.717459869E+02
1.311547358E+01  1.728534088E+02
1.313021437E+01  1.745293884E+02
1.314495516E+01  1.769485321E+02
1.315969596E+01  1.797760620E+02
1.317443675E+01  1.829284821E+02
1.318917754E+01  1.862489624E+02
1.320391833E+01  1.902293091E+02
1.321865912E+01  1.944429779E+02
1.323339992E+01  1.980565948E+02
1.324814071E+01  2.006513214E+02
1.326288150E+01  2.017133331E+02
1.327762229E+01  2.010992737E+02
1.329236308E+01  1.994619141E+02
1.330710388E+01  1.963491211E+02
1.332184467E+01  1.918409882E+02
1.333658546E+01  1.871515045E+02
1.335132625E+01  1.833210602E+02
1.336606704E+01  1.804814606E+02
1.338080784E+01  1.775947418E+02
1.339554863E+01  1.749890900E+02
1.341028942E+01  1.724845581E+02
1.342503021E+01  1.707681122E+02
1.343977101E+01  1.697401276E+02
1.345451180E+01  1.694214325E+02
1.346925259E+01  1.693162689E+02
1.348399338E+01  1.698350983E+02
1.349873417E+01  1.704657745E+02
1.351347497E+01  1.715834198E+02
1.352821576E+01  1.725893707E+02
1.354295655E+01  1.739125977E+02
1.355769734E+01  1.751347961E+02
1.357243813E+01  1.763538055E+02
1.358717893E+01  1.768472137E+02
1.360191972E+01  1.766470337E+02
1.361666051E+01  1.765179138E+02
1.363140130E+01  1.761686859E+02
1.364614209E+01  1.761813812E+02
1.366088289E+01  1.755767975E+02
1.367562368E+01  1.750225067E+02
1.369036447E+01  1.743303223E+02
1.370510526E+01  1.738195496E+02
1.371984606E+01  1.735927277E+02
1.373458685E+01  1.730278015E+02
1.374932764E+01  1.727967072E+02
1.376406843E+01  1.722516785E+02
1.377880922E+01  1.711650238E+02
1.379355002E+01  1.700970764E+02
1.380829081E+01  1.694226837E+02
1.382303160E+01  1.693612213E+02
1.383777239E+01  1.696923370E+02
1.385251318E+01  1.697237854E+02
1.386725398E+01  1.697362976E+02
1.388199477E+01  1.701327362E+02
1.389673556E+01  1.705980530E+02
1.391147635E+01  1.713756561E+02
1.392621715E+01  1.721788788E+02
1.394095794E+01  1.733304901E+02
1.395569873E+01  1.742028198E+02
1.397043952E+01  1.755910034E+02
1.398518031E+01  1.783304596E+02
1.399992111E+01  1.814911804E+02
1.401466190E+01  1.847937469E+02
1.402940269E+01  1.882936401E+02
1.404414348E+01  1.917501068E+02
1.405888427E+01  1.964421844E+02
1.407362507E+01  1.994681091E+02
1.408836586E+01  2.016617279E+02
1.410310665E+01  2.010510864E+02
1.411784744E+01  1.990947266E+02
1.413258823E+01  1.950865326E+02
1.414732903E+01  1.914223328E+02
1.416206982E+01  1.868875122E+02
1.417681061E+01  1.830101166E+02
1.419155140E+01  1.793665771E+02
1.420629220E+01  1.765200500E+02
1.422103299E+01  1.747948914E+02
1.423577378E+01  1.736099548E+02
1.425051457E+01  1.728089600E+02
1.426525536E+01  1.717171631E+02
1.427999616E+01  1.703971863E+02
1.429473695E+01  1.687113190E+02
1.430947774E+01  1.679479065E+02
1.432421853E+01  1.672362823E+02
1.433895932E+01  1.666860504E+02
1.435370012E+01  1.661313934E+02
1.436844091E+01  1.654933014E+02
1.438318170E+01  1.655563965E+02
1.439792249E+01  1.651521301E+02
1.441266328E+01  1.652371826E+02
1.442740408E+01  1.652898407E+02
1.444214487E+01  1.649149017E+02
1.445688566E+01  1.645821686E+02
1.447162645E+01  1.647651978E+02
1.448636725E+01  1.654361572E+02
1.450110804E+01  1.665845947E+02
1.451584883E+01  1.678400116E+02
1.453058962E+01  1.688197632E+02
1.454533041E+01  1.693668671E+02
1.456007121E+01  1.696522675E+02
1.457481200E+01  1.707393494E+02
1.458955279E+01  1.712895203E+02
1.460429358E+01  1.720379181E+02
1.461903437E+01  1.725655975E+02
1.463377517E+01  1.727938690E+02
1.464851596E+01  1.725430298E+02
1.466325675E+01  1.717964478E+02
1.467799754E+01  1.709671326E+02
1.469273833E+01  1.704974213E+02
1.470747913E+01  1.701767883E+02
1.472221992E+01  1.699172363E+02
1.473696071E+01  1.693038025E+02
1.475170150E+01  1.687442474E+02
1.476644230E+01  1.679677887E+02
1.478118309E+01  1.680988617E+02
1.479592388E+01  1.682841339E+02
1.481066467E+01  1.684674225E+02
1.482540546E+01  1.679521332E+02
1.484014626E+01  1.672213898E+02
1.485488705E+01  1.666846313E+02
1.486962784E+01  1.658130035E+02
1.488436863E+01  1.654160767E+02
1.489910942E+01  1.650645142E+02
1.491385022E+01  1.645803070E+02
1.492859101E+01  1.643830566E+02
1.494333180E+01  1.637888794E+02
1.495807259E+01  1.631650848E+02
1.497281339E+01  1.634724274E+02
1.498755418E+01  1.634401550E+02
1.500229497E+01  1.634721069E+02
1.501703576E+01  1.629439240E+02
1.503177655E+01  1.626371918E+02
1.504651735E+01  1.622541046E+02
1.506125814E+01  1.620516510E+02
1.507599893E+01  1.618289032E+02
1.509073972E+01  1.619242096E+02
1.510548051E+01  1.624250488E+02
1.512022131E+01  1.625461426E+02
1.513496210E+01  1.625269470E+02
1.514970289E+01  1.628338013E+02
1.516444368E+01  1.629958038E+02
1.517918447E+01  1.628337097E+02
1.519392527E+01  1.623880768E+02
1.520866606E+01  1.623009644E+02
1.522340685E+01  1.624080048E+02
1.523814764E+01  1.621258392E+02
1.525288844E+01  1.616519318E+02
1.526762923E+01  1.619396057E+02
1.528237002E+01  1.620614929E+02
1.529711081E+01  1.622373047E+02
1.531185160E+01  1.621240387E+02
1.532659240E+01  1.620586853E+02
1.534133319E+01  1.623495331E+02
1.535607398E+01  1.628620911E+02
1.537081477E+01  1.633125000E+02
1.538555556E+01  1.634782410E+02
1.540029636E+01  1.628923798E+02
1.541503715E+01  1.626822968E+02
1.542977794E+01  1.629663086E+02
1.544451873E+01  1.633706665E+02
1.545925952E+01  1.633050079E+02
1.547400032E+01  1.632945404E+02
1.548874111E+01  1.634304199E+02
1.550348190E+01  1.633614044E+02
1.551822269E+01  1.629742126E+02
1.553296349E+01  1.629405060E+02
1.554770428E+01  1.631712799E+02
1.556244507E+01  1.630820465E+02
1.557718586E+01  1.628910522E+02
1.559192665E+01  1.630569611E+02
1.560666745E+01  1.637170410E+02
1.562140824E+01  1.637874908E+02
1.563614903E+01  1.642900391E+02
1.565088982E+01  1.642515869E+02
1.566563061E+01  1.640823669E+02
1.568037141E+01  1.634871521E+02
1.569511220E+01  1.636228333E+02
1.570985299E+01  1.630181122E+02
1.572459378E+01  1.633229218E+02
1.573933457E+01  1.633146362E+02
1.575407537E+01  1.636665192E+02
1.576881616E+01  1.637918243E+02
1.578355695E+01  1.645325775E+02
1.579829774E+01  1.644928894E+02
1.581303854E+01  1.643780212E+02
1.582777933E+01  1.641454010E+02
1.584252012E+01  1.641564941E+02
1.585726091E+01  1.639623260E+02
1.587200170E+01  1.636266174E+02
1.588674250E+01  1.643762512E+02
1.590148329E+01  1.649325409E+02
1.591622408E+01  1.650332489E+02
1.593096487E+01  1.646071472E+02
1.594570566E+01  1.643239746E+02
1.596044646E+01  1.640763855E+02
1.597518725E+01  1.638600922E+02
1.598992804E+01  1.639829559E+02
1.600466883E+01  1.645260162E+02
1.601940963E+01  1.651891479E+02
1.603415042E+01  1.655843964E+02
1.604889121E+01  1.660493622E+02
1.606363200E+01  1.661573334E+02
1.607837279E+01  1.660706787E+02
1.609311359E+01  1.656867065E+02
1.610785438E+01  1.656655579E+02
1.612259517E+01  1.657783508E+02
1.613733596E+01  1.654809265E+02
1.615207675E+01  1.654213867E+02
1.616681755E+01  1.657355652E+02
1.618155834E+01  1.661436310E+02
1.619629913E+01  1.667265015E+02
1.621103992E+01  1.670479889E+02
1.622578071E+01  1.669314880E+02
1.624052151E+01  1.671587372E+02
1.625526230E+01  1.678628540E+02
1.627000309E+01  1.685913239E+02
1.628474388E+01  1.690078125E+02
1.629948468E+01  1.689101715E+02
1.631422547E+01  1.693611908E+02
1.632896626E+01  1.700625000E+02
1.634370705E+01  1.710564575E+02
1.635844784E+01  1.717593689E+02
1.637318864E+01  1.723524170E+02
1.638792943E+01  1.724932404E+02
1.640267022E+01  1.726950836E+02
1.641741101E+01  1.723135681E+02
1.643215180E+01  1.720626984E+02
1.644689260E+01  1.715721741E+02
1.646163339E+01  1.705023499E+02
1.647637418E+01  1.697575836E+02
1.649111497E+01  1.690249329E+02
1.650585576E+01  1.685853729E+02
1.652059656E+01  1.683697357E+02
1.653533735E+01  1.691446838E+02
1.655007814E+01  1.697647400E+02
1.656481893E+01  1.702659760E+02
1.657955973E+01  1.700526428E+02
1.659430052E+01  1.701894226E+02
1.660904131E+01  1.699849243E+02
1.662378210E+01  1.700369720E+02
1.663852289E+01  1.703284454E+02
1.665326369E+01  1.700899506E+02
1.666800448E+01  1.704481354E+02
1.668274527E+01  1.704154205E+02
1.669748606E+01  1.707883453E+02
1.671222685E+01  1.705587769E+02
1.672696765E+01  1.705236206E+02
1.674170844E+01  1.706580353E+02
1.675644923E+01  1.711346893E+02
1.677119002E+01  1.713120270E+02
1.678593081E+01  1.715750275E+02
1.680067161E+01  1.712653198E+02
1.681541240E+01  1.708857574E+02
1.683015319E+01  1.710335999E+02
1.684489398E+01  1.713050995E+02
1.685963478E+01  1.710467987E+02
1.687437557E+01  1.699976959E+02
1.688911636E+01  1.697380219E+02
1.690385715E+01  1.697960052E+02
1.691859794E+01  1.695666656E+02
1.693333874E+01  1.685382233E+02
1.694807953E+01  1.679656677E+02
1.696282032E+01  1.680745544E+02
1.697756111E+01  1.687825928E+02
1.699230190E+01  1.693081970E+02
1.700704270E+01  1.694209290E+02
1.702178349E+01  1.700030975E+02
1.703652428E+01  1.705030670E+02
1.705126507E+01  1.710231476E+02
1.706600587E+01  1.712313690E+02
1.708074666E+01  1.715658569E+02
1.709548745E+01  1.720985413E+02
1.711022824E+01  1.720840149E+02
1.712496903E+01  1.724076385E+02
1.713970983E+01  1.727022705E+02
1.715445062E+01  1.739206848E+02
1.716919141E+01  1.746434937E+02
1.718393220E+01  1.750215759E+02
1.719867299E+01  1.754136047E+02
1.721341379E+01  1.759579773E+02
1.722815458E+01  1.760958862E+02
1.724289537E+01  1.766012115E+02
1.725763616E+01  1.766327972E+02
1.727237695E+01  1.768586731E+02
1.728711775E+01  1.765745697E+02
1.730185854E+01  1.764933472E+02
1.731659933E+01  1.759926910E+02
1.733134012E+01  1.756953583E+02
1.734608092E+01  1.747305450E+02
1.736082171E+01  1.738854980E+02
1.737556250E+01  1.734397125E+02
1.739030329E+01  1.728624420E+02
1.740504408E+01  1.725762177E+02
1.741978488E+01  1.723645782E+02
1.743452567E+01  1.725082397E+02
1.744926646E+01  1.721736298E+02
1.746400725E+01  1.715150146E+02
1.747874804E+01  1.709765167E+02
1.749348884E+01  1.711000061E+02
1.750822963E+01  1.713414459E+02
1.752297042E+01  1.713378601E+02
1.753771121E+01  1.715981293E+02
1.755245200E+01  1.711914825E+02
1.756719280E+01  1.705849762E+02
1.758193359E+01  1.704448090E+02
1.759667438E+01  1.706993103E+02
1.761141517E+01  1.709715881E+02
1.762615597E+01  1.707273560E+02
1.764089676E+01  1.709599457E+02
1.765563755E+01  1.711709442E+02
1.767037834E+01  1.710884857E+02
1.768511913E+01  1.704700012E+02
1.769985993E+01  1.698863373E+02
1.771460072E+01  1.693640747E+02
1.772934151E+01  1.690140686E+02
1.774408230E+01  1.688890991E+02
1.775882309E+01  1.689658356E+02
1.777356389E+01  1.688509216E+02
1.778830468E+01  1.686212006E+02
1.780304547E+01  1.683932190E+02
1.781778626E+01  1.685999146E+02
1.783252705E+01  1.688359985E+02
1.784726785E+01  1.694842682E+02
1.786200864E+01  1.695038757E+02
1.787674943E+01  1.691482849E+02
1.789149022E+01  1.684980621E+02
1.790623102E+01  1.686191711E+02
1.792097181E+01  1.686057434E+02
1.793571260E+01  1.690653381E+02
1.795045339E+01  1.688758850E+02
1.796519418E+01  1.689026794E+02
1.797993498E+01  1.682715302E+02
1.799467577E+01  1.675355835E+02
1.800941656E+01  1.669052582E+02
1.802415735E+01  1.667259064E+02
1.803889814E+01  1.668129425E+02
1.805363894E+01  1.668615570E+02
1.806837973E+01  1.668103180E+02
1.808312052E+01  1.669545746E+02
1.809786131E+01  1.671161804E+02
1.811260211E+01  1.669521027E+02
1.812734290E+01  1.670042267E+02
1.814208369E+01  1.669647827E+02
1.815682448E+01  1.666815186E+02
1.817156527E+01  1.666819916E+02
1.818630607E+01  1.666245575E+02
1.820104686E+01  1.668560791E+02
1.821578765E+01  1.670152130E+02
1.823052844E+01  1.671316986E+02
1.824526923E+01  1.666810913E+02
1.826001003E+01  1.668057098E+02
1.827475082E+01  1.667401428E+02
1.828949161E+01  1.668325653E+02
1.830423240E+01  1.663513641E+02
1.831897319E+01  1.663311920E+02
1.833371399E+01  1.665122681E+02
1.834845478E+01  1.667993469E+02
1.836319557E+01  1.668594513E+02
1.837793636E+01  1.669561310E+02
1.839267716E+01  1.670832672E+02
1.840741795E+01  1.669781189E+02
1.842215874E+01  1.669473419E+02
1.843689953E+01  1.669074860E+02
1.845164032E+01  1.668896484E+02
1.846638112E+01  1.663701324E+02
1.848112191E+01  1.660665894E+02
1.849586270E+01  1.666889343E+02
1.851060349E+01  1.674075623E+02
1.852534428E+01  1.672500153E+02
1.854008508E+01  1.669528503E+02
1.855482587E+01  1.669228516E+02
1.856956666E+01  1.669459839E+02
1.858430745E+01  1.671166077E+02
1.859904824E+01  1.667230225E+02
1.861378904E+01  1.674190674E+02
1.862852983E+01  1.674677887E+02
1.864327062E+01  1.669898071E+02
1.865801141E+01  1.664998016E+02
1.867275221E+01  1.662037659E+02
1.868749300E+01  1.658954315E+02
1.870223379E+01  1.660274200E+02
1.871697458E+01  1.662004242E+02
1.873171537E+01  1.672320251E+02
1.874645617E+01  1.668687134E+02
1.876119696E+01  1.665211334E+02
1.877593775E+01  1.662575836E+02
1.879067854E+01  1.665318909E+02
1.880541933E+01  1.670879211E+02
1.882016013E+01  1.673892212E+02
1.883490092E+01  1.672492523E+02
1.884964171E+01  1.668568268E+02
1.886438250E+01  1.663155823E+02
1.887912329E+01  1.660488129E+02
1.889386409E+01  1.660914459E+02
1.890860488E+01  1.670286102E+02
1.892334567E+01  1.674165039E+02
1.893808646E+01  1.672666779E+02
1.895282726E+01  1.668975677E+02
1.896756805E+01  1.668670349E+02
1.898230884E+01  1.666931610E+02
1.899704963E+01  1.667489624E+02
1.901179042E+01  1.668147583E+02
1.902653122E+01  1.665106812E+02
1.904127201E+01  1.663816376E+02
1.905601280E+01  1.663855896E+02
1.907075359E+01  1.667848206E+02
1.908549438E+01  1.667967224E+02
1.910023518E+01  1.670267487E+02
1.911497597E+01  1.668996582E+02
1.912971676E+01  1.671030731E+02
1.914445755E+01  1.671397858E+02
1.915919834E+01  1.677335968E+02
1.917393914E+01  1.677464752E+02
1.918867993E+01  1.676224213E+02
1.920342072E+01  1.671540833E+02
1.921816151E+01  1.668421783E+02
1.923290231E+01  1.673187103E+02
1.924764310E+01  1.681740875E+02
1.926238389E+01  1.684674072E+02
1.927712468E+01  1.677845154E+02
1.929186547E+01  1.677027740E+02
1.930660627E+01  1.682521362E+02
1.932134706E+01  1.691452026E+02
1.933608785E+01  1.697898712E+02
1.935082864E+01  1.698574066E+02
1.936556943E+01  1.701398163E+02
1.938031023E+01  1.701627350E+02
1.939505102E+01  1.698186035E+02
1.940979181E+01  1.688321838E+02
1.942453260E+01  1.681889038E+02
1.943927340E+01  1.677183685E+02
1.945401419E+01  1.674644928E+02
1.946875498E+01  1.672171478E+02
1.948349577E+01  1.669725647E+02
1.949823656E+01  1.670460663E+02
1.951297736E+01  1.665729523E+02
1.952771815E+01  1.657009583E+02
1.954245894E+01  1.652445221E+02
1.955719973E+01  1.655637054E+02
1.957194052E+01  1.664152985E+02
1.958668132E+01  1.661961517E+02
1.960142211E+01  1.653657227E+02
1.961616290E+01  1.646006165E+02
1.963090369E+01  1.643258362E+02
1.964564448E+01  1.641493530E+02
1.966038528E+01  1.641662292E+02
1.967512607E+01  1.640817261E+02
1.968986686E+01  1.640444946E+02
1.970460765E+01  1.648224182E+02
1.971934845E+01  1.658611450E+02
1.973408924E+01  1.661225128E+02
1.974883003E+01  1.657394714E+02
1.976357082E+01  1.653927307E+02
1.977831161E+01  1.657422638E+02
1.979305241E+01  1.663054504E+02
1.980779320E+01  1.664016418E+02
1.982253399E+01  1.666128540E+02
1.983727478E+01  1.664922180E+02
1.985201557E+01  1.664871216E+02
1.986675637E+01  1.665136108E+02
1.988149716E+01  1.669127808E+02
1.989623795E+01  1.682903748E+02
1.991097874E+01  1.682460785E+02
1.992571953E+01  1.684173431E+02
1.994046033E+01  1.682812042E+02
1.995520112E+01  1.683310852E+02
1.996994191E+01  1.681545410E+02
1.998468270E+01  1.676356812E+02
1.999942350E+01  1.673907318E+02
2.001416429E+01  1.677974701E+02
2.002890508E+01  1.676166534E+02
2.004364587E+01  1.675259094E+02
2.005838666E+01  1.672519531E+02
2.007312746E+01  1.682596741E+02
2.008786825E+01  1.685894165E+02
2.010260904E+01  1.689064026E+02
2.011734983E+01  1.693295593E+02
2.013209062E+01  1.706692047E+02
2.014683142E+01  1.713853455E+02
2.016157221E+01  1.715662231E+02
2.017631300E+01  1.719261169E+02
2.019105379E+01  1.732508850E+02
2.020579458E+01  1.749737549E+02
2.022053538E+01  1.765474701E+02
2.023527617E+01  1.778542786E+02
2.025001696E+01  1.792169189E+02
2.026475775E+01  1.808837433E+02
2.027949855E+01  1.816569824E+02
2.029423934E+01  1.819597321E+02
2.030898013E+01  1.822342377E+02
2.032372092E+01  1.819406281E+02
2.033846171E+01  1.812532501E+02
2.035320251E+01  1.795794220E+02
2.036794330E+01  1.774781342E+02
2.038268409E+01  1.757022705E+02
2.039742488E+01  1.737801208E+02
2.041216567E+01  1.726367493E+02
2.042690647E+01  1.713630371E+02
2.044164726E+01  1.705472107E+02
2.045638805E+01  1.695268555E+02
2.047112884E+01  1.688303833E+02
2.048586964E+01  1.682722778E+02
2.050061043E+01  1.685707855E+02
2.051535122E+01  1.687473145E+02
2.053009201E+01  1.680511322E+02
2.054483280E+01  1.671199188E+02
2.055957360E+01  1.672703857E+02
2.057431439E+01  1.675475922E+02
2.058905518E+01  1.677734222E+02
2.060379597E+01  1.679977875E+02
2.061853676E+01  1.688159790E+02
2.063327756E+01  1.694855957E+02
2.064801835E+01  1.698253784E+02
2.066275914E+01  1.692514191E+02
2.067749993E+01  1.688709869E+02
2.069224072E+01  1.683565979E+02
2.070698152E+01  1.686244507E+02
2.072172231E+01  1.691188354E+02
2.073646310E+01  1.693924103E+02
2.075120389E+01  1.696630554E+02
2.076594469E+01  1.686601410E+02
2.078068548E+01  1.682374268E+02
2.079542627E+01  1.676437836E+02
2.081016706E+01  1.676688080E+02
2.082490785E+01  1.673009491E+02
2.083964865E+01  1.675645142E+02
2.085438944E+01  1.682904816E+02
2.086913023E+01  1.684870300E+02
2.088387102E+01  1.686456299E+02
2.089861181E+01  1.690429535E+02
2.091335261E+01  1.693891449E+02
2.092809340E+01  1.690645599E+02
2.094283419E+01  1.692622375E+02
2.095757498E+01  1.692121582E+02
2.097231577E+01  1.696760254E+02
2.098705657E+01  1.698669434E+02
2.100179736E+01  1.694327393E+02
2.101653815E+01  1.692290192E+02
2.103127894E+01  1.684475555E+02
2.104601974E+01  1.679758606E+02
2.106076053E+01  1.681536407E+02
2.107550132E+01  1.684773407E+02
2.109024211E+01  1.688733826E+02
2.110498290E+01  1.689925232E+02
2.111972370E+01  1.690041656E+02
2.113446449E+01  1.687376099E+02
2.114920528E+01  1.689148865E+02
2.116394607E+01  1.686686707E+02
2.117868686E+01  1.680266876E+02
2.119342766E+01  1.677285461E+02
2.120816845E+01  1.674352875E+02
2.122290924E+01  1.674655914E+02
2.123765003E+01  1.671748505E+02
2.125239082E+01  1.676959839E+02
2.126713162E+01  1.677968903E+02
2.128187241E+01  1.673231812E+02
2.129661320E+01  1.670068970E+02
2.131135399E+01  1.669355469E+02
2.132609479E+01  1.672392578E+02
2.134083558E+01  1.676177979E+02
2.135557637E+01  1.673466949E+02
2.137031716E+01  1.675503082E+02
2.138505795E+01  1.676707916E+02
2.139979875E+01  1.678149567E+02
2.141453954E+01  1.682248688E+02
2.142928033E+01  1.687666016E+02
2.144402112E+01  1.687758636E+02
2.145876191E+01  1.690635834E+02
2.147350271E+01  1.695080719E+02
2.148824350E+01  1.700358429E+02
2.150298429E+01  1.705719757E+02
2.151772508E+01  1.712034149E+02
2.153246588E+01  1.721386566E+02
2.154720667E+01  1.730728760E+02
2.156194746E+01  1.732469025E+02
2.157668825E+01  1.740213165E+02
2.159142904E+01  1.750290680E+02
2.160616984E+01  1.767594452E+02
2.162091063E+01  1.772429657E+02
2.163565142E+01  1.771837311E+02
2.165039221E+01  1.771008911E+02
2.166513300E+01  1.777561798E+02
2.167987380E+01  1.780178680E+02
2.169461459E+01  1.776186523E+02
2.170935538E+01  1.767415466E+02
2.172409617E+01  1.754308319E+02
2.173883696E+01  1.733255310E+02
2.175357776E+01  1.724307861E+02
2.176831855E+01  1.721884155E+02
2.178305934E+01  1.718502502E+02
2.179780013E+01  1.711316986E+02
2.181254093E+01  1.707483368E+02
2.182728172E+01  1.707771606E+02
2.184202251E+01  1.706470947E+02
2.185676330E+01  1.713604584E+02
2.187150409E+01  1.713817139E+02
2.188624489E+01  1.708000946E+02
2.190098568E+01  1.703713989E+02
2.191572647E+01  1.703310242E+02
2.193046726E+01  1.711309204E+02
2.194520805E+01  1.717953796E+02
2.195994885E+01  1.719465027E+02
2.197468964E+01  1.715844269E+02
2.198943043E+01  1.710892029E+02
2.200417122E+01  1.711119080E+02
2.201891201E+01  1.716872711E+02
2.203365281E+01  1.719698639E+02
2.204839360E+01  1.723829956E+02
2.206313439E+01  1.721011353E+02
2.207787518E+01  1.720045013E+02
2.209261598E+01  1.722284851E+02
2.210735677E+01  1.727986755E+02
2.212209756E+01  1.739365387E+02
2.213683835E+01  1.742371826E+02
2.215157914E+01  1.741821594E+02
2.216631994E+01  1.745769958E+02
2.218106073E+01  1.744214630E+02
2.219580152E+01  1.740557861E+02
2.221054231E+01  1.755217743E+02
2.222528310E+01  1.767063141E+02
2.224002390E+01  1.774507141E+02
2.225476469E+01  1.784474487E+02
2.226950548E+01  1.794214020E+02
2.228424627E+01  1.807462311E+02
2.229898706E+01  1.819535675E+02
2.231372786E+01  1.833173370E+02
2.232846865E+01  1.841346130E+02
2.234320944E+01  1.840256500E+02
2.235795023E+01  1.838778839E+02
2.237269103E+01  1.835086060E+02
2.238743182E+01  1.831872711E+02
2.240217261E+01  1.830978546E+02
2.241691340E+01  1.823082733E+02
2.243165419E+01  1.805444794E+02
2.244639499E+01  1.793207855E+02
2.246113578E+01  1.784593811E+02
2.247587657E+01  1.782913055E+02
2.249061736E+01  1.772022705E+02
2.250535815E+01  1.762770386E+02
2.252009895E+01  1.760861359E+02
2.253483974E+01  1.758498688E+02
2.254958053E+01  1.759202118E+02
2.256432132E+01  1.761173248E+02
2.257906212E+01  1.752792511E+02
2.259380291E+01  1.744620667E+02
2.260854370E+01  1.736072845E+02
2.262328449E+01  1.738900604E+02
2.263802528E+01  1.738792114E+02
2.265276608E+01  1.739970703E+02
2.266750687E+01  1.731853790E+02
2.268224766E+01  1.733608551E+02
2.269698845E+01  1.730937195E+02
2.271172924E+01  1.730410614E+02
2.272647004E+01  1.731673737E+02
2.274121083E+01  1.731281891E+02
2.275595162E+01  1.725891113E+02
2.277069241E+01  1.720760040E+02
2.278543320E+01  1.721842804E+02
2.280017400E+01  1.728265533E+02
2.281491479E+01  1.727211304E+02
2.282965558E+01  1.725042267E+02
2.284439637E+01  1.725909729E+02
2.285913717E+01  1.724851685E+02
2.287387796E+01  1.723656464E+02
2.288861875E+01  1.722812042E+02
2.290335954E+01  1.724711304E+02
2.291810033E+01  1.722170715E+02
2.293284113E+01  1.719173126E+02
2.294758192E+01  1.713006592E+02
2.296232271E+01  1.707250977E+02
2.297706350E+01  1.706573792E+02
2.299180429E+01  1.702185669E+02
2.300654509E+01  1.702328033E+02
2.302128588E+01  1.701402740E+02
2.303602667E+01  1.704909668E+02
2.305076746E+01  1.714965210E+02
2.306550825E+01  1.719442444E+02
2.308024905E+01  1.706512756E+02
2.309498984E+01  1.699476929E+02
2.310973063E+01  1.700702667E+02
2.312447142E+01  1.707820129E+02
2.313921222E+01  1.706931000E+02
2.315395301E+01  1.707272949E+02
2.316869380E+01  1.704256439E+02
2.318343459E+01  1.696168976E+02
2.319817538E+01  1.698118134E+02
2.321291618E+01  1.711004944E+02
2.322765697E+01  1.714948120E+02
2.324239776E+01  1.708039246E+02
2.325713855E+01  1.704544983E+02
2.327187934E+01  1.704943695E+02
2.328662014E+01  1.709183502E+02
2.330136093E+01  1.708219147E+02
2.331610172E+01  1.705765381E+02
2.333084251E+01  1.704547577E+02
2.334558330E+01  1.710132904E+02
2.336032410E+01  1.710809326E+02
2.337506489E+01  1.709818878E+02
2.338980568E+01  1.708039856E+02
2.340454647E+01  1.718117523E+02
2.341928727E+01  1.716760406E+02
2.343402806E+01  1.717925415E+02
2.344876885E+01  1.716999359E+02
2.346350964E+01  1.723503113E+02
2.347825043E+01  1.731943970E+02
2.349299123E+01  1.731803589E+02
2.350773202E+01  1.737443237E+02
2.352247281E+01  1.740067749E+02
2.353721360E+01  1.741286621E+02
2.355195439E+01  1.737782135E+02
2.356669519E+01  1.737669067E+02
2.358143598E+01  1.736172180E+02
2.359617677E+01  1.731172943E+02
2.361091756E+01  1.731255188E+02
2.362565836E+01  1.727649078E+02
2.364039915E+01  1.727969360E+02
2.365513994E+01  1.734301758E+02
2.366988073E+01  1.738433685E+02
2.368462152E+01  1.735511627E+02
2.369936232E+01  1.736353607E+02
2.371410311E+01  1.743846283E+02
2.372884390E+01  1.751606140E+02
2.374358469E+01  1.755969086E+02
2.375832548E+01  1.750764465E+02
2.377306628E+01  1.750506744E+02
2.378780707E+01  1.745765839E+02
2.380254786E+01  1.746752625E+02
2.381728865E+01  1.754748230E+02
2.383202944E+01  1.764002991E+02
2.384677024E+01  1.767660370E+02
2.386151103E+01  1.766721039E+02
2.387625182E+01  1.767614441E+02
2.389099261E+01  1.764914551E+02
2.390573341E+01  1.767671661E+02
2.392047420E+01  1.773084717E+02
2.393521499E+01  1.780954285E+02
2.394995578E+01  1.776545563E+02
2.396469657E+01  1.767445679E+02
2.397943737E+01  1.754661407E+02
2.399417816E+01  1.750703888E+02
2.400891895E+01  1.759818878E+02
2.402365974E+01  1.762269745E+02
2.403840053E+01  1.760341797E+02
2.405314133E+01  1.759250641E+02
2.406788212E+01  1.759898987E+02
2.408262291E+01  1.759568024E+02
2.409736370E+01  1.763539581E+02
2.411210449E+01  1.759306793E+02
2.412684529E+01  1.759554443E+02
2.414158608E+01  1.765648499E+02
2.415632687E+01  1.770025787E+02
2.417106766E+01  1.776560211E+02
2.418580846E+01  1.792156525E+02
2.420054925E+01  1.799921875E+02
2.421529004E+01  1.797042389E+02
2.423003083E+01  1.803073425E+02
2.424477162E+01  1.814881592E+02
2.425951242E+01  1.827830963E+02
2.427425321E+01  1.825648499E+02
2.428899400E+01  1.819312134E+02
2.430373479E+01  1.819711761E+02
2.431847558E+01  1.825467834E+02
2.433321638E+01  1.831875610E+02
2.434795717E+01  1.839224091E+02
2.436269796E+01  1.837231750E+02
2.437743875E+01  1.829011536E+02
2.439217954E+01  1.822876282E+02
2.440692034E+01  1.823969421E+02
2.442166113E+01  1.827445068E+02
2.443640192E+01  1.829079590E+02
2.445114271E+01  1.826587830E+02
2.446588351E+01  1.827601471E+02
2.448062430E+01  1.838380280E+02
2.449536509E+01  1.843147888E+02
2.451010588E+01  1.844439545E+02
2.452484667E+01  1.840788422E+02
2.453958747E+01  1.824918365E+02
2.455432826E+01  1.812456360E+02
2.456906905E+01  1.803920898E+02
2.458380984E+01  1.799463348E+02
2.459855063E+01  1.789509583E+02
2.461329143E+01  1.784893494E+02
2.462803222E+01  1.780227814E+02
2.464277301E+01  1.773479004E+02
2.465751380E+01  1.767484894E+02
2.467225460E+01  1.766057892E+02
2.468699539E+01  1.764981842E+02
2.470173618E+01  1.762545929E+02
2.471647697E+01  1.753072662E+02
2.473121776E+01  1.753877106E+02
2.474595856E+01  1.761069641E+02
2.476069935E+01  1.764895935E+02
2.477544014E+01  1.755667725E+02
2.479018093E+01  1.750659790E+02
2.480492172E+01  1.755014343E+02
2.481966252E+01  1.761392670E+02
2.483440331E+01  1.756684875E+02
2.484914410E+01  1.752021637E+02
2.486388489E+01  1.743583374E+02
2.487862568E+01  1.736661835E+02
2.489336648E+01  1.732769928E+02
2.490810727E+01  1.729318237E+02
2.492284806E+01  1.722416992E+02
2.493758885E+01  1.717877045E+02
2.495232965E+01  1.721391449E+02
2.496707044E+01  1.725878143E+02
2.498181123E+01  1.719980927E+02
2.499655202E+01  1.720338593E+02
2.501129281E+01  1.715471802E+02
2.502603361E+01  1.708634796E+02
2.504077440E+01  1.705220490E+02
2.505551519E+01  1.714886322E+02
2.507025598E+01  1.722427521E+02
2.508499677E+01  1.721108704E+02
2.509973757E+01  1.711040955E+02
2.511447836E+01  1.702998047E+02
2.512921915E+01  1.703138123E+02
2.514395994E+01  1.707460480E+02
2.515870073E+01  1.705778198E+02
2.517344153E+01  1.707600250E+02
2.518818232E+01  1.708002319E+02
2.520292311E+01  1.709001923E+02
2.521766390E+01  1.700350647E+02
2.523240470E+01  1.699156952E+02
2.524714549E+01  1.697036285E+02
2.526188628E+01  1.691499939E+02
2.527662707E+01  1.692414246E+02
2.529136786E+01  1.696367798E+02
2.530610866E+01  1.693836365E+02
2.532084945E+01  1.692677612E+02
2.533559024E+01  1.694672241E+02
2.535033103E+01  1.693613586E+02
2.536507182E+01  1.692746124E+02
2.537981262E+01  1.697321625E+02
2.539455341E+01  1.696570282E+02
2.540929420E+01  1.693975067E+02
2.542403499E+01  1.690892334E+02
2.543877578E+01  1.687111206E+02
2.545351658E+01  1.685703888E+02
2.546825737E+01  1.695751801E+02
2.548299816E+01  1.697238312E+02
2.549773895E+01  1.692003326E+02
2.551247975E+01  1.681473999E+02
2.552722054E+01  1.681459045E+02
2.554196133E+01  1.684772491E+02
2.555670212E+01  1.688451538E+02
2.557144291E+01  1.683326111E+02
2.558618371E+01  1.675131073E+02
2.560092450E+01  1.675162964E+02
2.561566529E+01  1.680177917E+02
2.563040608E+01  1.682897491E+02
2.564514687E+01  1.684431763E+02
2.565988767E+01  1.685654907E+02
2.567462846E+01  1.689471130E+02
2.568936925E+01  1.686317444E+02
2.570411004E+01  1.685259399E+02
2.571885084E+01  1.677941437E+02
2.573359163E+01  1.676497803E+02
2.574833242E+01  1.671943970E+02
2.576307321E+01  1.674940948E+02
2.577781400E+01  1.674996338E+02
2.579255480E+01  1.675473938E+02
2.580729559E+01  1.677854919E+02
2.582203638E+01  1.681557159E+02
2.583677717E+01  1.673701477E+02
2.585151796E+01  1.671937256E+02
2.586625876E+01  1.669327698E+02
2.588099955E+01  1.665320282E+02
2.589574034E+01  1.667294159E+02
2.591048113E+01  1.664289703E+02
2.592522192E+01  1.658343964E+02
2.593996272E+01  1.665165558E+02
2.595470351E+01  1.672638550E+02
2.596944430E+01  1.672116852E+02
2.598418509E+01  1.654960175E+02
2.599892589E+01  1.661751709E+02
2.601366668E+01  1.673624268E+02
2.602840747E+01  1.680652161E+02
2.604314826E+01  1.677680206E+02
2.605788905E+01  1.672935181E+02
2.607262985E+01  1.672292938E+02
2.608737064E+01  1.672334137E+02
2.610211143E+01  1.668706207E+02
2.611685222E+01  1.674402771E+02
2.613159301E+01  1.673479462E+02
2.614633381E+01  1.673061523E+02
2.616107460E+01  1.673135681E+02
2.617581539E+01  1.667790375E+02
2.619055618E+01  1.658627167E+02
2.620529697E+01  1.662346954E+02
2.622003777E+01  1.668987885E+02
2.623477856E+01  1.676705780E+02
2.624951935E+01  1.680493317E+02
2.626426014E+01  1.675145874E+02
2.627900094E+01  1.672684784E+02
2.629374173E+01  1.670895233E+02
2.630848252E+01  1.669998627E+02
2.632322331E+01  1.671639252E+02
2.633796410E+01  1.676209259E+02
2.635270490E+01  1.672025909E+02
2.636744569E+01  1.658502502E+02
2.638218648E+01  1.658756866E+02
2.639692727E+01  1.661753387E+02
2.641166806E+01  1.655936890E+02
2.642640886E+01  1.658531647E+02
2.644114965E+01  1.672314911E+02
2.645589044E+01  1.677032928E+02
2.647063123E+01  1.674450378E+02
2.648537202E+01  1.667585144E+02
2.650011282E+01  1.665354614E+02
2.651485361E+01  1.666031799E+02
2.652959440E+01  1.673265228E+02
2.654433519E+01  1.679088745E+02
2.655907599E+01  1.680495148E+02
2.657381678E+01  1.668547668E+02
2.658855757E+01  1.660557098E+02
2.660329836E+01  1.663436584E+02
2.661803915E+01  1.667730865E+02
2.663277995E+01  1.663409882E+02
2.664752074E+01  1.661328430E+02
2.666226153E+01  1.662891541E+02
2.667700232E+01  1.666920319E+02
2.669174311E+01  1.667914886E+02
2.670648391E+01  1.662270050E+02
2.672122470E+01  1.655574799E+02
2.673596549E+01  1.659751892E+02
2.675070628E+01  1.670946350E+02
2.676544707E+01  1.673214264E+02
2.678018787E+01  1.667309113E+02
2.679492866E+01  1.667279968E+02
2.680966945E+01  1.660673370E+02
2.682441024E+01  1.657991638E+02
2.683915104E+01  1.655609131E+02
2.685389183E+01  1.659470978E+02
2.686863262E+01  1.657065582E+02
2.688337341E+01  1.655893555E+02
2.689811420E+01  1.656669769E+02
2.691285500E+01  1.659484406E+02
2.692759579E+01  1.657320709E+02
2.694233658E+01  1.655599976E+02
2.695707737E+01  1.654399261E+02
2.697181816E+01  1.657881012E+02
2.698655896E+01  1.657595367E+02
2.700129975E+01  1.655516815E+02
2.701604054E+01  1.648689117E+02
2.703078133E+01  1.640664520E+02
2.704552213E+01  1.637967072E+02
2.706026292E+01  1.649313812E+02
2.707500371E+01  1.651873474E+02
2.708974450E+01  1.647229004E+02
2.710448529E+01  1.640657959E+02
2.711922609E+01  1.641074371E+02
2.713396688E+01  1.644382935E+02
2.714870767E+01  1.649872589E+02
2.716344846E+01  1.647142181E+02
2.717818925E+01  1.641581726E+02
2.719293005E+01  1.635491791E+02
2.720767084E+01  1.633781281E+02
2.722241163E+01  1.629380798E+02
2.723715242E+01  1.631298065E+02
2.725189321E+01  1.648077698E+02
2.726663401E+01  1.656267395E+02
2.728137480E+01  1.652448120E+02
2.729611559E+01  1.641927185E+02
2.731085638E+01  1.640153198E+02
2.732559718E+01  1.642114716E+02
2.734033797E+01  1.650484619E+02
2.735507876E+01  1.651060944E+02
2.736981955E+01  1.646815491E+02
2.738456034E+01  1.649804535E+02
2.739930114E+01  1.653502197E+02
2.741404193E+01  1.650636292E+02
2.742878272E+01  1.642373657E+02
2.744352351E+01  1.639698792E+02
2.745826430E+01  1.636995850E+02
2.747300510E+01  1.641115723E+02
2.748774589E+01  1.633866425E+02
2.750248668E+01  1.632768707E+02
2.751722747E+01  1.629945526E+02
2.753196826E+01  1.630675812E+02
2.754670906E+01  1.631584778E+02
2.756144985E+01  1.633413086E+02
2.757619064E+01  1.638971252E+02
2.759093143E+01  1.641215973E+02
2.760567223E+01  1.637383270E+02
2.762041302E+01  1.636851196E+02
2.763515381E+01  1.637576752E+02
2.764989460E+01  1.631905060E+02
2.766463539E+01  1.630273895E+02
2.767937619E+01  1.634390869E+02
2.769411698E+01  1.632654419E+02
2.770885777E+01  1.630046387E+02
2.772359856E+01  1.627227173E+02
2.773833935E+01  1.630840607E+02
2.775308015E+01  1.632751617E+02
2.776782094E+01  1.633806610E+02
2.778256173E+01  1.633502045E+02
2.779730252E+01  1.635498047E+02
2.781204331E+01  1.635726624E+02
2.782678411E+01  1.629663849E+02
2.784152490E+01  1.625514069E+02
2.785626569E+01  1.629219666E+02
2.787100648E+01  1.631479645E+02
2.788574728E+01  1.635614319E+02
2.790048807E+01  1.637546234E+02
2.791522886E+01  1.638384705E+02
2.792996965E+01  1.640059204E+02
2.794471044E+01  1.636629639E+02
2.795945124E+01  1.632009430E+02
2.797419203E+01  1.634914551E+02
2.798893282E+01  1.642017059E+02
2.800367361E+01  1.642810974E+02
2.801841440E+01  1.635465240E+02
2.803315520E+01  1.637216339E+02
2.804789599E+01  1.638284302E+02
2.806263678E+01  1.641124725E+02
2.807737757E+01  1.631558533E+02
2.809211837E+01  1.624333038E+02
2.810685916E+01  1.624861145E+02
2.812159995E+01  1.624543610E+02
2.813634074E+01  1.628812561E+02
2.815108153E+01  1.634407349E+02
2.816582233E+01  1.638532715E+02
2.818056312E+01  1.638100891E+02
2.819530391E+01  1.634780273E+02
2.821004470E+01  1.627776794E+02
2.822478549E+01  1.637954102E+02
2.823952629E+01  1.648639374E+02
2.825426708E+01  1.646615906E+02
2.826900787E+01  1.641706238E+02
2.828374866E+01  1.645466156E+02
2.829848945E+01  1.649449463E+02
2.831323025E+01  1.646053009E+02
2.832797104E+01  1.640621338E+02
2.834271183E+01  1.642401428E+02
2.835745262E+01  1.647964630E+02
2.837219342E+01  1.649149933E+02
2.838693421E+01  1.641866302E+02
2.840167500E+01  1.642725372E+02
2.841641579E+01  1.644410095E+02
2.843115658E+01  1.643071289E+02
2.844589738E+01  1.641082916E+02
2.846063817E+01  1.640963898E+02
2.847537896E+01  1.636625671E+02
2.849011975E+01  1.630616455E+02
2.850486054E+01  1.629511719E+02
2.851960134E+01  1.627431335E+02
2.853434213E+01  1.625496368E+02
2.854908292E+01  1.626534119E+02
2.856382371E+01  1.626126862E+02
2.857856450E+01  1.625083771E+02
2.859330530E+01  1.619618225E+02
2.860804609E+01  1.615517273E+02
2.862278688E+01  1.615153351E+02
2.863752767E+01  1.618366394E+02
2.865226847E+01  1.620666962E+02
2.866700926E+01  1.618998108E+02
2.868175005E+01  1.619021912E+02
2.869649084E+01  1.616889801E+02
2.871123163E+01  1.615310211E+02
2.872597243E+01  1.617803497E+02
2.874071322E+01  1.619494934E+02
2.875545401E+01  1.618150177E+02
2.877019480E+01  1.615044861E+02
2.878493559E+01  1.619259644E+02
2.879967639E+01  1.616994476E+02
2.881441718E+01  1.613698273E+02
2.882915797E+01  1.612375183E+02
2.884389876E+01  1.611272583E+02
2.885863955E+01  1.612683868E+02
2.887338035E+01  1.609184265E+02
2.888812114E+01  1.609019623E+02
2.890286193E+01  1.612889709E+02
2.891760272E+01  1.612620392E+02
2.893234352E+01  1.610980988E+02
2.894708431E+01  1.608664856E+02
2.896182510E+01  1.607138519E+02
2.897656589E+01  1.607077179E+02
2.899130668E+01  1.618452606E+02
2.900604748E+01  1.611701355E+02
2.902078827E+01  1.600649109E+02
2.903552906E+01  1.602899017E+02
2.905026985E+01  1.610003967E+02
2.906501064E+01  1.611447754E+02
2.907975144E+01  1.610765991E+02
2.909449223E+01  1.608408508E+02
2.910923302E+01  1.606085815E+02
2.912397381E+01  1.602036591E+02
2.913871461E+01  1.603339233E+02
2.915345540E+01  1.602289581E+02
2.916819619E+01  1.601185303E+02
2.918293698E+01  1.602780914E+02
2.919767777E+01  1.609148102E+02
2.921241857E+01  1.613906860E+02
2.922715936E+01  1.615169220E+02
2.924190015E+01  1.606278076E+02
2.925664094E+01  1.602938995E+02
2.927138173E+01  1.601707764E+02
2.928612253E+01  1.606252136E+02
2.930086332E+01  1.608045959E+02
2.931560411E+01  1.608800507E+02
2.933034490E+01  1.606929016E+02
2.934508569E+01  1.610815887E+02
2.935982649E+01  1.610629578E+02
2.937456728E+01  1.610963898E+02
2.938930807E+01  1.600705872E+02
2.940404886E+01  1.602080841E+02
2.941878966E+01  1.612499847E+02
2.943353045E+01  1.616535645E+02
2.944827124E+01  1.609952087E+02
2.946301203E+01  1.603638000E+02
2.947775282E+01  1.604105072E+02
2.949249362E+01  1.605130005E+02
2.950723441E+01  1.605381012E+02
2.952197520E+01  1.612007294E+02
2.953671599E+01  1.607733917E+02
2.955145678E+01  1.602264099E+02
2.956619758E+01  1.606601257E+02
2.958093837E+01  1.613687134E+02
2.959567916E+01  1.609878998E+02
2.961041995E+01  1.608273163E+02
2.962516074E+01  1.604623413E+02
2.963990154E+01  1.599094086E+02
2.965464233E+01  1.598009186E+02
2.966938312E+01  1.600411530E+02
2.968412391E+01  1.606301117E+02
2.969886471E+01  1.599933777E+02
2.971360550E+01  1.595716858E+02
2.972834629E+01  1.598761444E+02
2.974308708E+01  1.592045288E+02
2.975782787E+01  1.584162903E+02
2.977256867E+01  1.585199890E+02
2.978730946E+01  1.590475922E+02
2.980205025E+01  1.590000000E+02
2.981679104E+01  1.586952820E+02
2.983153183E+01  1.587968597E+02
2.984627263E+01  1.588259277E+02
2.986101342E+01  1.574640503E+02
2.987575421E+01  1.567378082E+02
2.989049500E+01  1.570104980E+02
2.990523579E+01  1.567779846E+02
2.991997659E+01  1.553669434E+02
2.993471738E+01  1.543673401E+02
2.994945817E+01  1.539323120E+02
2.996419896E+01  1.536213531E+02
2.997893976E+01  1.533325348E+02
2.999368055E+01  1.528420258E+02
3.000842134E+01  1.524468384E+02
3.002316213E+01  1.518425140E+02
3.003790292E+01  1.514371643E+02
3.005264372E+01  1.509705048E+02
3.006738451E+01  1.502337952E+02
3.008212530E+01  1.495608521E+02
3.009686609E+01  1.488856201E+02
3.011160688E+01  1.479784546E+02
3.012634768E+01  1.468071747E+02
3.014108847E+01  1.454492645E+02
3.015582926E+01  1.441300812E+02
3.017057005E+01  1.433866272E+02
3.018531085E+01  1.422598877E+02
3.020005164E+01  1.407935944E+02
3.021479243E+01  1.387616425E+02
3.022953322E+01  1.362585907E+02
3.024427401E+01  1.342683411E+02
3.025901481E+01  1.325469666E+02
3.027375560E+01  1.313664246E+02
3.028849639E+01  1.299024963E+02
3.030323718E+01  1.286698456E+02
3.031797797E+01  1.269837570E+02
3.033271877E+01  1.254361343E+02
3.034745956E+01  1.243807068E+02
3.036220035E+01  1.233263321E+02
3.037694114E+01  1.222941284E+02
3.039168193E+01  1.209737930E+02
3.040642273E+01  1.202201614E+02
3.042116352E+01  1.197817078E+02
3.043590431E+01  1.194938965E+02
3.045064510E+01  1.186257553E+02
3.046538590E+01  1.172587585E+02
3.048012669E+01  1.164972305E+02
3.049486748E+01  1.158877563E+02
3.050960827E+01  1.155064545E+02
3.052434906E+01  1.148347244E+02
3.053908986E+01  1.130468216E+02
3.055383065E+01  1.117850189E+02
3.056857144E+01  1.108934784E+02
3.058331223E+01  1.104018631E+02
3.059805302E+01  1.098968353E+02
3.061279382E+01  1.088834305E+02
3.062753461E+01  1.074733276E+02
3.064227540E+01  1.072815857E+02
3.065701619E+01  1.072667236E+02
3.067175698E+01  1.052339630E+02
3.068649778E+01  1.038402481E+02
3.070123857E+01  1.031329269E+02
3.071597936E+01  1.030319595E+02
3.073072015E+01  1.021464462E+02
3.074546095E+01  1.016793213E+02
3.076020174E+01  1.007322998E+02
3.077494253E+01  9.931319427E+01
3.078968332E+01  9.800086975E+01
3.080442411E+01  9.717842102E+01
3.081916491E+01  9.644586182E+01
3.083390570E+01  9.619973755E+01
3.084864649E+01  9.500432587E+01
3.086338728E+01  9.304689789E+01
3.087812807E+01  9.184497833E+01
3.089286887E+01  9.141326904E+01
3.090760966E+01  9.091404724E+01
3.092235045E+01  9.043350220E+01
3.093709124E+01  8.937808990E+01
3.095183203E+01  8.845252991E+01
3.096657283E+01  8.777071381E+01
3.098131362E+01  8.662712860E+01
3.099605441E+01  8.548617554E+01
3.101079520E+01  8.431137848E+01
3.102553600E+01  8.339705658E+01
3.104027679E+01  8.222750854E+01
3.105501758E+01  8.178358459E+01
3.106975837E+01  8.099459839E+01
3.108449916E+01  8.012361145E+01
3.109923996E+01  7.946524811E+01
3.111398075E+01  7.817168427E+01
3.112872154E+01  7.787859344E+01
3.114346233E+01  7.746843719E+01
3.115820312E+01  7.623361206E+01
3.117294392E+01  7.498899841E+01
3.118768471E+01  7.395085907E+01
3.120242550E+01  7.347718811E+01
3.121716629E+01  7.278227997E+01
3.123190709E+01  7.162876129E+01
3.124664788E+01  7.093348694E+01
3.126138867E+01  7.042121887E+01
3.127612946E+01  6.932532501E+01
3.129087025E+01  6.798551941E+01
3.130561105E+01  6.734143829E+01
3.132035184E+01  6.667825317E+01
3.133509263E+01  6.576123047E+01
3.134983342E+01  6.507420349E+01
3.136457421E+01  6.411261749E+01
3.137931501E+01  6.338272095E+01
3.139405580E+01  6.285091019E+01
3.140879659E+01  6.255512238E+01
3.142353738E+01  6.208588791E+01
3.143827817E+01  6.115892410E+01
3.145301897E+01  6.054696655E+01
3.146775976E+01  6.006234741E+01
3.148250055E+01  5.965736008E+01
3.149724134E+01  5.935073090E+01
3.151198214E+01  5.841237259E+01
3.152672293E+01  5.742636108E+01
3.154146372E+01  5.690538788E+01
3.155620451E+01  5.629845428E+01
3.157094530E+01  5.614329147E+01
3.158568610E+01  5.613883972E+01
3.160042689E+01  5.580937195E+01
3.161516768E+01  5.476200867E+01
3.162990847E+01  5.411011505E+01
3.164464926E+01  5.452374649E+01
3.165939006E+01  5.431647873E+01
3.167413085E+01  5.365044403E+01
3.168887164E+01  5.323752213E+01
3.170361243E+01  5.296520233E+01
3.171835322E+01  5.223605347E+01
3.173309402E+01  5.143328857E+01
3.174783481E+01  5.206388092E+01
3.176257560E+01  5.215704346E+01
3.177731639E+01  5.135472107E+01
3.179205719E+01  5.062939453E+01
3.180679798E+01  5.065507507E+01
3.182153877E+01  5.070287704E+01
3.183627956E+01  5.026132965E+01
3.185102035E+01  4.968199158E+01
3.186576115E+01  4.953672409E+01
3.188050194E+01  4.955132294E+01
3.189524273E+01  5.008209610E+01
3.190998352E+01  5.016136169E+01
3.192472431E+01  5.001457977E+01
3.193946511E+01  4.957003403E+01
3.195420590E+01  4.821512222E+01
3.196894669E+01  4.851900482E+01
3.198368748E+01  4.898220062E+01
3.199842827E+01  4.921340942E+01
3.201316907E+01  4.829866791E+01
3.202790986E+01  4.619113541E+01
3.204265065E+01  4.619113541E+01
3.205739144E+01  4.862564850E+01
3.207213224E+01  4.879913330E+01
3.208687303E+01  4.887237930E+01
