# == pyFAI calibration ==
# Distance Sample to Detector: 0.11507480176033233 m
# PONI: 5.477e-03, 4.716e-03 m
# Rotations: 0.004686 0.005536 0.000000 rad
# 
# == Fit2d calibration ==
# Distance Sample-beamCenter: 115.078 mm
# Center: x=55.690, y=81.516 pix
# Tilt: 0.416 deg  TiltPlanRot: 130.247 deg
# 
# Detector Detector	 Spline= None	 PixelSize= 7.500e-05, 7.500e-05 m
#    Detector has a mask: False 
#    Detector has a dark current: False 
#    detector has a flat field: False 
# 
# Wavelength: 4.833e-11 m
# Mask applied: None
# Dark current applied: None
# Flat field applied: None
# Polarization factor: None
# Normalization factor: None
#
# 2th_deg	 I
1.131209591E+00  3.572376633E+01
1.145950384E+00  4.291992188E+01
1.160691176E+00  4.968390656E+01
1.175431968E+00  5.380450821E+01
1.190172760E+00  6.194920349E+01
1.204913552E+00  6.836077118E+01
1.219654344E+00  7.368639374E+01
1.234395136E+00  7.632583618E+01
1.249135928E+00  7.956423950E+01
1.263876720E+00  8.507671356E+01
1.278617513E+00  8.892501831E+01
1.293358305E+00  9.082680511E+01
1.308099097E+00  9.094732666E+01
1.322839889E+00  9.298559570E+01
1.337580681E+00  9.606021881E+01
1.352321473E+00  9.878739166E+01
1.367062265E+00  1.025352478E+02
1.381803057E+00  1.041555557E+02
1.396543850E+00  1.059820480E+02
1.411284642E+00  1.077106476E+02
1.426025434E+00  1.086018982E+02
1.440766226E+00  1.097007751E+02
1.455507018E+00  1.089119720E+02
1.470247810E+00  1.100426559E+02
1.484988602E+00  1.109360275E+02
1.499729394E+00  1.117303085E+02
1.514470186E+00  1.124749222E+02
1.529210979E+00  1.131993179E+02
1.543951771E+00  1.144334793E+02
1.558692563E+00  1.158104248E+02
1.573433355E+00  1.174823151E+02
1.588174147E+00  1.189210663E+02
1.602914939E+00  1.194000092E+02
1.617655731E+00  1.199412689E+02
1.632396523E+00  1.204147644E+02
1.647137315E+00  1.227903519E+02
1.661878108E+00  1.233516541E+02
1.676618900E+00  1.227150726E+02
1.691359692E+00  1.223471222E+02
1.706100484E+00  1.236884537E+02
1.720841276E+00  1.250183411E+02
1.735582068E+00  1.262485199E+02
1.750322860E+00  1.271658630E+02
1.765063652E+00  1.273157654E+02
1.779804444E+00  1.282076721E+02
1.794545237E+00  1.281465302E+02
1.809286029E+00  1.282398529E+02
1.824026821E+00  1.285808563E+02
1.838767613E+00  1.292586060E+02
1.853508405E+00  1.300526428E+02
1.868249197E+00  1.310973358E+02
1.882989989E+00  1.321291809E+02
1.897730781E+00  1.328540344E+02
1.912471573E+00  1.326394196E+02
1.927212366E+00  1.325622559E+02
1.941953158E+00  1.322792969E+02
1.956693950E+00  1.334020844E+02
1.971434742E+00  1.343444672E+02
1.986175534E+00  1.350173187E+02
2.000916326E+00  1.360853271E+02
2.015657118E+00  1.362085876E+02
2.030397910E+00  1.374483490E+02
2.045138702E+00  1.389472198E+02
2.059879495E+00  1.398883362E+02
2.074620287E+00  1.407924957E+02
2.089361079E+00  1.410244751E+02
2.104101871E+00  1.408350525E+02
2.118842663E+00  1.409589233E+02
2.133583455E+00  1.412979126E+02
2.148324247E+00  1.424554901E+02
2.163065039E+00  1.429443207E+02
2.177805831E+00  1.432232208E+02
2.192546624E+00  1.433382568E+02
2.207287416E+00  1.435291901E+02
2.222028208E+00  1.453729858E+02
2.236769000E+00  1.458371735E+02
2.251509792E+00  1.460259094E+02
2.266250584E+00  1.454771423E+02
2.280991376E+00  1.449769745E+02
2.295732168E+00  1.455009766E+02
2.310472960E+00  1.449400482E+02
2.325213753E+00  1.454600372E+02
2.339954545E+00  1.460159454E+02
2.354695337E+00  1.464686584E+02
2.369436129E+00  1.470990601E+02
2.384176921E+00  1.472071381E+02
2.398917713E+00  1.477039185E+02
2.413658505E+00  1.483606110E+02
2.428399297E+00  1.490017395E+02
2.443140089E+00  1.491239166E+02
2.457880882E+00  1.486108856E+02
2.472621674E+00  1.480875549E+02
2.487362466E+00  1.478136139E+02
2.502103258E+00  1.483458405E+02
2.516844050E+00  1.491774139E+02
2.531584842E+00  1.495212097E+02
2.546325634E+00  1.497284088E+02
2.561066426E+00  1.489678192E+02
2.575807219E+00  1.476875305E+02
2.590548011E+00  1.475207825E+02
2.605288803E+00  1.475003052E+02
2.620029595E+00  1.477919006E+02
2.634770387E+00  1.477798004E+02
2.649511179E+00  1.477211151E+02
2.664251971E+00  1.482632141E+02
2.678992763E+00  1.478702698E+02
2.693733555E+00  1.472259979E+02
2.708474348E+00  1.461830597E+02
2.723215140E+00  1.459311829E+02
2.737955932E+00  1.468307495E+02
2.752696724E+00  1.475940247E+02
2.767437516E+00  1.473338623E+02
2.782178308E+00  1.463695984E+02
2.796919100E+00  1.456428528E+02
2.811659892E+00  1.455614319E+02
2.826400684E+00  1.458053741E+02
2.841141477E+00  1.462072296E+02
2.855882269E+00  1.464810333E+02
2.870623061E+00  1.464563599E+02
2.885363853E+00  1.463474274E+02
2.900104645E+00  1.462199097E+02
2.914845437E+00  1.460653076E+02
2.929586229E+00  1.460452118E+02
2.944327021E+00  1.458603821E+02
2.959067813E+00  1.450245667E+02
2.973808606E+00  1.444232788E+02
2.988549398E+00  1.447021027E+02
3.003290190E+00  1.441259613E+02
3.018030982E+00  1.443172760E+02
3.032771774E+00  1.437095947E+02
3.047512566E+00  1.439678955E+02
3.062253358E+00  1.445622559E+02
3.076994150E+00  1.450631561E+02
3.091734942E+00  1.448319244E+02
3.106475735E+00  1.445659180E+02
3.121216527E+00  1.439923248E+02
3.135957319E+00  1.435085602E+02
3.150698111E+00  1.429888000E+02
3.165438903E+00  1.427396088E+02
3.180179695E+00  1.430358734E+02
3.194920487E+00  1.438151245E+02
3.209661279E+00  1.437787018E+02
3.224402071E+00  1.436474609E+02
3.239142864E+00  1.438528900E+02
3.253883656E+00  1.437863617E+02
3.268624448E+00  1.434364471E+02
3.283365240E+00  1.432281952E+02
3.298106032E+00  1.432896729E+02
3.312846824E+00  1.436583099E+02
3.327587616E+00  1.436963043E+02
3.342328408E+00  1.438279114E+02
3.357069200E+00  1.436434479E+02
3.371809993E+00  1.436834106E+02
3.386550785E+00  1.428932800E+02
3.401291577E+00  1.421977386E+02
3.416032369E+00  1.415162048E+02
3.430773161E+00  1.409444885E+02
3.445513953E+00  1.410554047E+02
3.460254745E+00  1.408073578E+02
3.474995537E+00  1.404880066E+02
3.489736329E+00  1.405190277E+02
3.504477122E+00  1.409281158E+02
3.519217914E+00  1.401347504E+02
3.533958706E+00  1.390611877E+02
3.548699498E+00  1.386400757E+02
3.563440290E+00  1.373520203E+02
3.578181082E+00  1.363730469E+02
3.592921874E+00  1.363874664E+02
3.607662666E+00  1.368523407E+02
3.622403458E+00  1.377966156E+02
3.637144251E+00  1.374701538E+02
3.651885043E+00  1.371363068E+02
3.666625835E+00  1.365825653E+02
3.681366627E+00  1.364025421E+02
3.696107419E+00  1.371579285E+02
3.710848211E+00  1.374730377E+02
3.725589003E+00  1.381524963E+02
3.740329795E+00  1.381644287E+02
3.755070587E+00  1.375243988E+02
3.769811380E+00  1.373747559E+02
3.784552172E+00  1.373420105E+02
3.799292964E+00  1.378715210E+02
3.814033756E+00  1.380637360E+02
3.828774548E+00  1.379248657E+02
3.843515340E+00  1.380131226E+02
3.858256132E+00  1.385435486E+02
3.872996924E+00  1.389563599E+02
3.887737717E+00  1.391079254E+02
3.902478509E+00  1.391299591E+02
3.917219301E+00  1.384936829E+02
3.931960093E+00  1.379871979E+02
3.946700885E+00  1.375225830E+02
3.961441677E+00  1.376335754E+02
3.976182469E+00  1.369864960E+02
3.990923261E+00  1.367391510E+02
4.005664053E+00  1.362111664E+02
4.020404846E+00  1.354833832E+02
4.035145638E+00  1.349627228E+02
4.049886430E+00  1.349229431E+02
4.064627222E+00  1.346273041E+02
4.079368014E+00  1.344183960E+02
4.094108806E+00  1.340774231E+02
4.108849598E+00  1.343368683E+02
4.123590390E+00  1.339813385E+02
4.138331182E+00  1.331547546E+02
4.153071975E+00  1.318482971E+02
4.167812767E+00  1.322505341E+02
4.182553559E+00  1.324570618E+02
4.197294351E+00  1.330095520E+02
4.212035143E+00  1.325785828E+02
4.226775935E+00  1.321636200E+02
4.241516727E+00  1.319470673E+02
4.256257519E+00  1.314756775E+02
4.270998311E+00  1.310215454E+02
4.285739104E+00  1.303092499E+02
4.300479896E+00  1.295675964E+02
4.315220688E+00  1.293616486E+02
4.329961480E+00  1.290395050E+02
4.344702272E+00  1.287019501E+02
4.359443064E+00  1.280577393E+02
4.374183856E+00  1.278847504E+02
4.388924648E+00  1.281444092E+02
4.403665440E+00  1.277396622E+02
4.418406233E+00  1.270807190E+02
4.433147025E+00  1.268785934E+02
4.447887817E+00  1.266530838E+02
4.462628609E+00  1.273921890E+02
4.477369401E+00  1.270323868E+02
4.492110193E+00  1.267022018E+02
4.506850985E+00  1.254214020E+02
4.521591777E+00  1.251075058E+02
4.536332569E+00  1.249795303E+02
4.551073362E+00  1.255400772E+02
4.565814154E+00  1.255622101E+02
4.580554946E+00  1.257812805E+02
4.595295738E+00  1.257481613E+02
4.610036530E+00  1.260165482E+02
4.624777322E+00  1.259099884E+02
4.639518114E+00  1.253264313E+02
4.654258906E+00  1.247011414E+02
4.668999698E+00  1.246428146E+02
4.683740491E+00  1.243904343E+02
4.698481283E+00  1.246496887E+02
4.713222075E+00  1.249537201E+02
4.727962867E+00  1.242740097E+02
4.742703659E+00  1.245222778E+02
4.757444451E+00  1.251526413E+02
4.772185243E+00  1.254822235E+02
4.786926035E+00  1.249371262E+02
4.801666827E+00  1.239823227E+02
4.816407620E+00  1.232238541E+02
4.831148412E+00  1.232269135E+02
4.845889204E+00  1.225688934E+02
4.860629996E+00  1.220049515E+02
4.875370788E+00  1.217484360E+02
4.890111580E+00  1.214851151E+02
4.904852372E+00  1.218562775E+02
4.919593164E+00  1.220848846E+02
4.934333956E+00  1.226749573E+02
4.949074749E+00  1.225783920E+02
4.963815541E+00  1.222756424E+02
4.978556333E+00  1.219080505E+02
4.993297125E+00  1.215755768E+02
5.008037917E+00  1.211440430E+02
5.022778709E+00  1.205665970E+02
5.037519501E+00  1.208232727E+02
5.052260293E+00  1.211659088E+02
5.067001086E+00  1.213547897E+02
5.081741878E+00  1.210280304E+02
5.096482670E+00  1.203981171E+02
5.111223462E+00  1.196509857E+02
5.125964254E+00  1.196932602E+02
5.140705046E+00  1.199627151E+02
5.155445838E+00  1.204023438E+02
5.170186630E+00  1.203099518E+02
5.184927422E+00  1.197340393E+02
5.199668215E+00  1.193598404E+02
5.214409007E+00  1.191629028E+02
5.229149799E+00  1.190159836E+02
5.243890591E+00  1.183154526E+02
5.258631383E+00  1.182297211E+02
5.273372175E+00  1.189180984E+02
5.288112967E+00  1.190464630E+02
5.302853759E+00  1.190762177E+02
5.317594551E+00  1.187761154E+02
5.332335344E+00  1.188090210E+02
5.347076136E+00  1.182984390E+02
5.361816928E+00  1.182076035E+02
5.376557720E+00  1.176174011E+02
5.391298512E+00  1.176573792E+02
5.406039304E+00  1.178578644E+02
5.420780096E+00  1.178602524E+02
5.435520888E+00  1.173495560E+02
5.450261680E+00  1.172609329E+02
5.465002473E+00  1.176948547E+02
5.479743265E+00  1.181503525E+02
5.494484057E+00  1.182190933E+02
5.509224849E+00  1.183041840E+02
5.523965641E+00  1.184504776E+02
5.538706433E+00  1.180316772E+02
5.553447225E+00  1.177532578E+02
5.568188017E+00  1.169777756E+02
5.582928809E+00  1.168777771E+02
5.597669602E+00  1.175020981E+02
5.612410394E+00  1.180631866E+02
5.627151186E+00  1.181290207E+02
5.641891978E+00  1.178837662E+02
5.656632770E+00  1.178534393E+02
5.671373562E+00  1.182079773E+02
5.686114354E+00  1.189219055E+02
5.700855146E+00  1.196580124E+02
5.715595938E+00  1.200113831E+02
5.730336731E+00  1.195435944E+02
5.745077523E+00  1.192474136E+02
5.759818315E+00  1.187095032E+02
5.774559107E+00  1.183329697E+02
5.789299899E+00  1.177585297E+02
5.804040691E+00  1.172533340E+02
5.818781483E+00  1.168367920E+02
5.833522275E+00  1.164052429E+02
5.848263067E+00  1.162873154E+02
5.863003860E+00  1.164479980E+02
5.877744652E+00  1.162348099E+02
5.892485444E+00  1.166038284E+02
5.907226236E+00  1.163117065E+02
5.921967028E+00  1.163281174E+02
5.936707820E+00  1.165024796E+02
5.951448612E+00  1.166142349E+02
5.966189404E+00  1.167770538E+02
5.980930196E+00  1.167408676E+02
5.995670989E+00  1.165103531E+02
6.010411781E+00  1.160505142E+02
6.025152573E+00  1.157412033E+02
6.039893365E+00  1.161608276E+02
6.054634157E+00  1.166992111E+02
6.069374949E+00  1.170680618E+02
6.084115741E+00  1.171212311E+02
6.098856533E+00  1.167694244E+02
6.113597325E+00  1.168575668E+02
6.128338118E+00  1.169445648E+02
6.143078910E+00  1.170855179E+02
6.157819702E+00  1.165952606E+02
6.172560494E+00  1.165565262E+02
6.187301286E+00  1.168765717E+02
6.202042078E+00  1.171961823E+02
6.216782870E+00  1.173876953E+02
6.231523662E+00  1.176866760E+02
6.246264454E+00  1.178550644E+02
6.261005247E+00  1.177335739E+02
6.275746039E+00  1.174471130E+02
6.290486831E+00  1.174604721E+02
6.305227623E+00  1.176396332E+02
6.319968415E+00  1.174460068E+02
6.334709207E+00  1.171427765E+02
6.349449999E+00  1.173076782E+02
6.364190791E+00  1.180045624E+02
6.378931584E+00  1.181684723E+02
6.393672376E+00  1.179279022E+02
6.408413168E+00  1.177829514E+02
6.423153960E+00  1.180846558E+02
6.437894752E+00  1.187189178E+02
6.452635544E+00  1.190217667E+02
6.467376336E+00  1.192243652E+02
6.482117128E+00  1.189667358E+02
6.496857920E+00  1.181552200E+02
6.511598713E+00  1.181426849E+02
6.526339505E+00  1.181243668E+02
6.541080297E+00  1.185493088E+02
6.555821089E+00  1.188622971E+02
6.570561881E+00  1.186727982E+02
6.585302673E+00  1.187423325E+02
6.600043465E+00  1.185158157E+02
6.614784257E+00  1.187923279E+02
6.629525049E+00  1.189244690E+02
6.644265842E+00  1.188902283E+02
6.659006634E+00  1.189870300E+02
6.673747426E+00  1.186041183E+02
6.688488218E+00  1.186419678E+02
6.703229010E+00  1.184544373E+02
6.717969802E+00  1.183157730E+02
6.732710594E+00  1.184733810E+02
6.747451386E+00  1.187500992E+02
6.762192178E+00  1.190927429E+02
6.776932971E+00  1.190402603E+02
6.791673763E+00  1.190928802E+02
6.806414555E+00  1.188806076E+02
6.821155347E+00  1.190810928E+02
6.835896139E+00  1.192824097E+02
6.850636931E+00  1.193736801E+02
6.865377723E+00  1.190375671E+02
6.880118515E+00  1.186969833E+02
6.894859307E+00  1.181748047E+02
6.909600100E+00  1.182088699E+02
6.924340892E+00  1.189556885E+02
6.939081684E+00  1.199089661E+02
6.953822476E+00  1.200550766E+02
6.968563268E+00  1.195518188E+02
6.983304060E+00  1.192822113E+02
6.998044852E+00  1.194948502E+02
7.012785644E+00  1.193081207E+02
7.027526436E+00  1.193252563E+02
7.042267229E+00  1.196750717E+02
7.057008021E+00  1.203815765E+02
7.071748813E+00  1.205004959E+02
7.086489605E+00  1.202751694E+02
7.101230397E+00  1.196269379E+02
7.115971189E+00  1.190840683E+02
7.130711981E+00  1.193131561E+02
7.145452773E+00  1.197175903E+02
7.160193565E+00  1.200427704E+02
7.174934358E+00  1.200552673E+02
7.189675150E+00  1.196003571E+02
7.204415942E+00  1.196813583E+02
7.219156734E+00  1.196315536E+02
7.233897526E+00  1.200088806E+02
7.248638318E+00  1.203711243E+02
7.263379110E+00  1.207466736E+02
7.278119902E+00  1.205207596E+02
7.292860694E+00  1.206685257E+02
7.307601487E+00  1.203971100E+02
7.322342279E+00  1.203868179E+02
7.337083071E+00  1.201150970E+02
7.351823863E+00  1.201336441E+02
7.366564655E+00  1.198935471E+02
7.381305447E+00  1.206565704E+02
7.396046239E+00  1.213385620E+02
7.410787031E+00  1.217524261E+02
7.425527823E+00  1.216065750E+02
7.440268616E+00  1.211765213E+02
7.455009408E+00  1.211654358E+02
7.469750200E+00  1.211283112E+02
7.484490992E+00  1.213155975E+02
7.499231784E+00  1.214524002E+02
7.513972576E+00  1.219194412E+02
7.528713368E+00  1.220958252E+02
7.543454160E+00  1.219163513E+02
7.558194953E+00  1.219789734E+02
7.572935745E+00  1.220990067E+02
7.587676537E+00  1.219986420E+02
7.602417329E+00  1.221053467E+02
7.617158121E+00  1.220967941E+02
7.631898913E+00  1.223059082E+02
7.646639705E+00  1.222609482E+02
7.661380497E+00  1.229505692E+02
7.676121289E+00  1.233978119E+02
7.690862082E+00  1.231235580E+02
7.705602874E+00  1.229112625E+02
7.720343666E+00  1.229561691E+02
7.735084458E+00  1.235119019E+02
7.749825250E+00  1.236251602E+02
7.764566042E+00  1.237579193E+02
7.779306834E+00  1.235301666E+02
7.794047626E+00  1.237980423E+02
7.808788418E+00  1.240748062E+02
7.823529211E+00  1.245378799E+02
7.838270003E+00  1.248258362E+02
7.853010795E+00  1.254240417E+02
7.867751587E+00  1.259358673E+02
7.882492379E+00  1.265441132E+02
7.897233171E+00  1.268111191E+02
7.911973963E+00  1.271707535E+02
7.926714755E+00  1.278013229E+02
7.941455547E+00  1.284432220E+02
7.956196340E+00  1.292876282E+02
7.970937132E+00  1.303040314E+02
7.985677924E+00  1.310678406E+02
8.000418716E+00  1.322256470E+02
8.015159508E+00  1.332766113E+02
8.029900300E+00  1.355162354E+02
8.044641092E+00  1.368188171E+02
8.059381884E+00  1.380615387E+02
8.074122676E+00  1.379533539E+02
8.088863469E+00  1.382714691E+02
8.103604261E+00  1.382656097E+02
8.118345053E+00  1.376886139E+02
8.133085845E+00  1.376023407E+02
8.147826637E+00  1.373500977E+02
8.162567429E+00  1.377134399E+02
8.177308221E+00  1.378745575E+02
8.192049013E+00  1.382309265E+02
8.206789805E+00  1.391210480E+02
8.221530598E+00  1.402672272E+02
8.236271390E+00  1.413826141E+02
8.251012182E+00  1.428208923E+02
8.265752974E+00  1.449726868E+02
8.280493766E+00  1.478672485E+02
8.295234558E+00  1.525284119E+02
8.309975350E+00  1.566927185E+02
8.324716142E+00  1.614746857E+02
8.339456934E+00  1.659463196E+02
8.354197727E+00  1.708668365E+02
8.368938519E+00  1.744430389E+02
8.383679311E+00  1.750325165E+02
8.398420103E+00  1.725978851E+02
8.413160895E+00  1.683265076E+02
8.427901687E+00  1.630215149E+02
8.442642479E+00  1.575533295E+02
8.457383271E+00  1.530994568E+02
8.472124063E+00  1.486689301E+02
8.486864856E+00  1.448327179E+02
8.501605648E+00  1.425173035E+02
8.516346440E+00  1.411094360E+02
8.531087232E+00  1.418628387E+02
8.545828024E+00  1.416137695E+02
8.560568816E+00  1.406842651E+02
8.575309608E+00  1.395799255E+02
8.590050400E+00  1.390864105E+02
8.604791192E+00  1.390360718E+02
8.619531985E+00  1.386018219E+02
8.634272777E+00  1.383871002E+02
8.649013569E+00  1.378917847E+02
8.663754361E+00  1.377808533E+02
8.678495153E+00  1.375132294E+02
8.693235945E+00  1.376867218E+02
8.707976737E+00  1.377161713E+02
8.722717529E+00  1.380058899E+02
8.737458321E+00  1.379732208E+02
8.752199114E+00  1.379323730E+02
8.766939906E+00  1.379456177E+02
8.781680698E+00  1.382974854E+02
8.796421490E+00  1.389266510E+02
8.811162282E+00  1.394696655E+02
8.825903074E+00  1.399146271E+02
8.840643866E+00  1.406218719E+02
8.855384658E+00  1.416937256E+02
8.870125451E+00  1.424366150E+02
8.884866243E+00  1.433515167E+02
8.899607035E+00  1.437192535E+02
8.914347827E+00  1.441860199E+02
8.929088619E+00  1.450711517E+02
8.943829411E+00  1.457826233E+02
8.958570203E+00  1.463309631E+02
8.973310995E+00  1.464939880E+02
8.988051787E+00  1.462464294E+02
9.002792580E+00  1.459324646E+02
9.017533372E+00  1.460385437E+02
9.032274164E+00  1.466621857E+02
9.047014956E+00  1.474252167E+02
9.061755748E+00  1.473290253E+02
9.076496540E+00  1.469600220E+02
9.091237332E+00  1.475503693E+02
9.105978124E+00  1.484507141E+02
9.120718916E+00  1.487879944E+02
9.135459709E+00  1.481533356E+02
9.150200501E+00  1.477702332E+02
9.164941293E+00  1.487312775E+02
9.179682085E+00  1.491685486E+02
9.194422877E+00  1.497035675E+02
9.209163669E+00  1.499915771E+02
9.223904461E+00  1.503952332E+02
9.238645253E+00  1.514646606E+02
9.253386045E+00  1.519214325E+02
9.268126838E+00  1.522366486E+02
9.282867630E+00  1.524714050E+02
9.297608422E+00  1.524325562E+02
9.312349214E+00  1.528418427E+02
9.327090006E+00  1.527119598E+02
9.341830798E+00  1.535082397E+02
9.356571590E+00  1.539680023E+02
9.371312382E+00  1.548554840E+02
9.386053174E+00  1.550859680E+02
9.400793967E+00  1.553324585E+02
9.415534759E+00  1.556517181E+02
9.430275551E+00  1.565553436E+02
9.445016343E+00  1.567493439E+02
9.459757135E+00  1.568797302E+02
9.474497927E+00  1.567669830E+02
9.489238719E+00  1.569104309E+02
9.503979511E+00  1.572308655E+02
9.518720303E+00  1.575400543E+02
9.533461096E+00  1.580113831E+02
9.548201888E+00  1.589149780E+02
9.562942680E+00  1.599342346E+02
9.577683472E+00  1.610036774E+02
9.592424264E+00  1.615939789E+02
9.607165056E+00  1.619311066E+02
9.621905848E+00  1.629925690E+02
9.636646640E+00  1.650518341E+02
9.651387432E+00  1.681405792E+02
9.666128225E+00  1.703925476E+02
9.680869017E+00  1.733206787E+02
9.695609809E+00  1.764312134E+02
9.710350601E+00  1.825853424E+02
9.725091393E+00  1.897975311E+02
9.739832185E+00  1.977419281E+02
9.754572977E+00  2.050364838E+02
9.769313769E+00  2.085291595E+02
9.784054561E+00  2.071694946E+02
9.798795354E+00  2.015054321E+02
9.813536146E+00  1.929805908E+02
9.828276938E+00  1.846506500E+02
9.843017730E+00  1.782465057E+02
9.857758522E+00  1.743276367E+02
9.872499314E+00  1.716909485E+02
9.887240106E+00  1.704836731E+02
9.901980898E+00  1.699721222E+02
9.916721690E+00  1.713016510E+02
9.931462483E+00  1.739710693E+02
9.946203275E+00  1.771843109E+02
9.960944067E+00  1.804384003E+02
9.975684859E+00  1.827154388E+02
9.990425651E+00  1.843337402E+02
1.000516644E+01  1.860163422E+02
1.001990724E+01  1.875002441E+02
1.003464803E+01  1.870284271E+02
1.004938882E+01  1.855721893E+02
1.006412961E+01  1.823423767E+02
1.007887040E+01  1.788733673E+02
1.009361120E+01  1.756622772E+02
1.010835199E+01  1.721694489E+02
1.012309278E+01  1.694902496E+02
1.013783357E+01  1.668799744E+02
1.015257436E+01  1.646663666E+02
1.016731516E+01  1.616905518E+02
1.018205595E+01  1.591306763E+02
1.019679674E+01  1.575747223E+02
1.021153753E+01  1.572650604E+02
1.022627832E+01  1.586092529E+02
1.024101912E+01  1.600936584E+02
1.025575991E+01  1.614159393E+02
1.027050070E+01  1.611437531E+02
1.028524149E+01  1.606900177E+02
1.029998229E+01  1.594263458E+02
1.031472308E+01  1.580652313E+02
1.032946387E+01  1.567679901E+02
1.034420466E+01  1.562913361E+02
1.035894545E+01  1.553516541E+02
1.037368625E+01  1.546969452E+02
1.038842704E+01  1.540818634E+02
1.040316783E+01  1.537317505E+02
1.041790862E+01  1.531954041E+02
1.043264941E+01  1.523039398E+02
1.044739021E+01  1.516573792E+02
1.046213100E+01  1.512408447E+02
1.047687179E+01  1.507389069E+02
1.049161258E+01  1.502963409E+02
1.050635337E+01  1.499122620E+02
1.052109417E+01  1.497196503E+02
1.053583496E+01  1.494379425E+02
1.055057575E+01  1.490784149E+02
1.056531654E+01  1.488295288E+02
1.058005734E+01  1.483872986E+02
1.059479813E+01  1.479808197E+02
1.060953892E+01  1.475942688E+02
1.062427971E+01  1.476569824E+02
1.063902050E+01  1.473203125E+02
1.065376130E+01  1.471826477E+02
1.066850209E+01  1.470407562E+02
1.068324288E+01  1.478956299E+02
1.069798367E+01  1.481160431E+02
1.071272446E+01  1.489062347E+02
1.072746526E+01  1.488710175E+02
1.074220605E+01  1.484639282E+02
1.075694684E+01  1.477785797E+02
1.077168763E+01  1.473993683E+02
1.078642843E+01  1.474167023E+02
1.080116922E+01  1.478271179E+02
1.081591001E+01  1.482970581E+02
1.083065080E+01  1.487888947E+02
1.084539159E+01  1.486780090E+02
1.086013239E+01  1.488557739E+02
1.087487318E+01  1.485934601E+02
1.088961397E+01  1.486715088E+02
1.090435476E+01  1.485867767E+02
1.091909555E+01  1.489524841E+02
1.093383635E+01  1.490936890E+02
1.094857714E+01  1.493678741E+02
1.096331793E+01  1.498737335E+02
1.097805872E+01  1.504971008E+02
1.099279951E+01  1.513337250E+02
1.100754031E+01  1.518423920E+02
1.102228110E+01  1.518076935E+02
1.103702189E+01  1.516272583E+02
1.105176268E+01  1.516614838E+02
1.106650348E+01  1.521772308E+02
1.108124427E+01  1.527684784E+02
1.109598506E+01  1.525613708E+02
1.111072585E+01  1.524818878E+02
1.112546664E+01  1.527790833E+02
1.114020744E+01  1.531752777E+02
1.115494823E+01  1.531537323E+02
1.116968902E+01  1.528397827E+02
1.118442981E+01  1.523569946E+02
1.119917060E+01  1.522118225E+02
1.121391140E+01  1.520227051E+02
1.122865219E+01  1.523661957E+02
1.124339298E+01  1.516570892E+02
1.125813377E+01  1.507417755E+02
1.127287456E+01  1.504049530E+02
1.128761536E+01  1.503726196E+02
1.130235615E+01  1.510522461E+02
1.131709694E+01  1.510076141E+02
1.133183773E+01  1.508868408E+02
1.134657853E+01  1.510385437E+02
1.136131932E+01  1.515098114E+02
1.137606011E+01  1.518646851E+02
1.139080090E+01  1.519917297E+02
1.140554169E+01  1.518489990E+02
1.142028249E+01  1.521926422E+02
1.143502328E+01  1.521730042E+02
1.144976407E+01  1.523042755E+02
1.146450486E+01  1.526215210E+02
1.147924565E+01  1.533525696E+02
1.149398645E+01  1.539436188E+02
1.150872724E+01  1.546738129E+02
1.152346803E+01  1.550096893E+02
1.153820882E+01  1.563123627E+02
1.155294961E+01  1.574934387E+02
1.156769041E+01  1.592280426E+02
1.158243120E+01  1.606867676E+02
1.159717199E+01  1.625540161E+02
1.161191278E+01  1.651442871E+02
1.162665358E+01  1.682659302E+02
1.164139437E+01  1.725844269E+02
1.165613516E+01  1.769546204E+02
1.167087595E+01  1.816521606E+02
1.168561674E+01  1.860435181E+02
1.170035754E+01  1.913775940E+02
1.171509833E+01  1.950125885E+02
1.172983912E+01  1.967808685E+02
1.174457991E+01  1.935602875E+02
1.175932070E+01  1.884931183E+02
1.177406150E+01  1.806466522E+02
1.178880229E+01  1.744196167E+02
1.180354308E+01  1.699466705E+02
1.181828387E+01  1.663695831E+02
1.183302467E+01  1.636683655E+02
1.184776546E+01  1.614111023E+02
1.186250625E+01  1.601230164E+02
1.187724704E+01  1.595663910E+02
1.189198783E+01  1.589359894E+02
1.190672863E+01  1.587340546E+02
1.192146942E+01  1.583603668E+02
1.193621021E+01  1.581720734E+02
1.195095100E+01  1.583256378E+02
1.196569179E+01  1.589891052E+02
1.198043259E+01  1.592719727E+02
1.199517338E+01  1.592164612E+02
1.200991417E+01  1.589775848E+02
1.202465496E+01  1.595191956E+02
1.203939575E+01  1.599465942E+02
1.205413655E+01  1.602141418E+02
1.206887734E+01  1.601548157E+02
1.208361813E+01  1.608017578E+02
1.209835892E+01  1.610707092E+02
1.211309972E+01  1.612769165E+02
1.212784051E+01  1.617695312E+02
1.214258130E+01  1.623616638E+02
1.215732209E+01  1.627544861E+02
1.217206288E+01  1.632403564E+02
1.218680368E+01  1.630122528E+02
1.220154447E+01  1.628943176E+02
1.221628526E+01  1.633321686E+02
1.223102605E+01  1.640179291E+02
1.224576684E+01  1.648256378E+02
1.226050764E+01  1.651354370E+02
1.227524843E+01  1.653317261E+02
1.228998922E+01  1.654582214E+02
1.230473001E+01  1.650783539E+02
1.231947080E+01  1.646325378E+02
1.233421160E+01  1.646241760E+02
1.234895239E+01  1.653706970E+02
1.236369318E+01  1.666227570E+02
1.237843397E+01  1.675266418E+02
1.239317477E+01  1.677400360E+02
1.240791556E+01  1.677762451E+02
1.242265635E+01  1.678966064E+02
1.243739714E+01  1.690247040E+02
1.245213793E+01  1.697202454E+02
1.246687873E+01  1.711466675E+02
1.248161952E+01  1.719662781E+02
1.249636031E+01  1.730810394E+02
1.251110110E+01  1.737656860E+02
1.252584189E+01  1.745094299E+02
1.254058269E+01  1.746711578E+02
1.255532348E+01  1.748296051E+02
1.257006427E+01  1.754653015E+02
1.258480506E+01  1.759936829E+02
1.259954585E+01  1.757236481E+02
1.261428665E+01  1.752832642E+02
1.262902744E+01  1.747621613E+02
1.264376823E+01  1.746281281E+02
1.265850902E+01  1.742074890E+02
1.267324982E+01  1.736201172E+02
1.268799061E+01  1.736717224E+02
1.270273140E+01  1.737945557E+02
1.271747219E+01  1.733776855E+02
1.273221298E+01  1.728742371E+02
1.274695378E+01  1.722609253E+02
1.276169457E+01  1.722038422E+02
1.277643536E+01  1.719931183E+02
1.279117615E+01  1.719834290E+02
1.280591694E+01  1.723570251E+02
1.282065774E+01  1.719717712E+02
1.283539853E+01  1.718511200E+02
1.285013932E+01  1.716178131E+02
1.286488011E+01  1.717454224E+02
1.287962091E+01  1.716131592E+02
1.289436170E+01  1.716414185E+02
1.290910249E+01  1.708147278E+02
1.292384328E+01  1.704096222E+02
1.293858407E+01  1.704426727E+02
1.295332487E+01  1.710729523E+02
1.296806566E+01  1.714609985E+02
1.298280645E+01  1.717531891E+02
1.299754724E+01  1.721835632E+02
1.301228803E+01  1.725372162E+02
1.302702883E+01  1.731326904E+02
1.304176962E+01  1.727954559E+02
1.305651041E+01  1.736831055E+02
1.307125120E+01  1.747642365E+02
1.308599199E+01  1.761009369E+02
1.310073279E+01  1.773473511E+02
1.311547358E+01  1.786459503E+02
1.313021437E+01  1.804132233E+02
1.314495516E+01  1.829661713E+02
1.315969596E+01  1.854441071E+02
1.317443675E+01  1.889152527E+02
1.318917754E+01  1.923057404E+02
1.320391833E+01  1.967751923E+02
1.321865912E+01  2.012581482E+02
1.323339992E+01  2.056964111E+02
1.324814071E+01  2.094997253E+02
1.326288150E+01  2.121009369E+02
1.327762229E+01  2.128009796E+02
1.329236308E+01  2.115180969E+02
1.330710388E+01  2.088601227E+02
1.332184467E+01  2.046286469E+02
1.333658546E+01  1.996937561E+02
1.335132625E+01  1.942199860E+02
1.336606704E+01  1.896866302E+02
1.338080784E+01  1.854110107E+02
1.339554863E+01  1.822596436E+02
1.341028942E+01  1.794598236E+02
1.342503021E+01  1.772497101E+02
1.343977101E+01  1.751196289E+02
1.345451180E+01  1.737597046E+02
1.346925259E+01  1.727237701E+02
1.348399338E+01  1.719758911E+02
1.349873417E+01  1.716032715E+02
1.351347497E+01  1.715872040E+02
1.352821576E+01  1.718207703E+02
1.354295655E+01  1.722773743E+02
1.355769734E+01  1.732096405E+02
1.357243813E+01  1.743944550E+02
1.358717893E+01  1.757971954E+02
1.360191972E+01  1.776161652E+02
1.361666051E+01  1.787912140E+02
1.363140130E+01  1.794998627E+02
1.364614209E+01  1.800687103E+02
1.366088289E+01  1.798485107E+02
1.367562368E+01  1.793101044E+02
1.369036447E+01  1.785502014E+02
1.370510526E+01  1.774982605E+02
1.371984606E+01  1.767013855E+02
1.373458685E+01  1.752447662E+02
1.374932764E+01  1.742973938E+02
1.376406843E+01  1.734137726E+02
1.377880922E+01  1.720988617E+02
1.379355002E+01  1.717343597E+02
1.380829081E+01  1.717235718E+02
1.382303160E+01  1.724845734E+02
1.383777239E+01  1.727045441E+02
1.385251318E+01  1.724942780E+02
1.386725398E+01  1.727308350E+02
1.388199477E+01  1.730119934E+02
1.389673556E+01  1.736408844E+02
1.391147635E+01  1.740808411E+02
1.392621715E+01  1.751218872E+02
1.394095794E+01  1.758891907E+02
1.395569873E+01  1.761485748E+02
1.397043952E+01  1.763412476E+02
1.398518031E+01  1.769817047E+02
1.399992111E+01  1.783029327E+02
1.401466190E+01  1.799654846E+02
1.402940269E+01  1.813782043E+02
1.404414348E+01  1.819366608E+02
1.405888427E+01  1.827413483E+02
1.407362507E+01  1.833645630E+02
1.408836586E+01  1.842766418E+02
1.410310665E+01  1.866078644E+02
1.411784744E+01  1.894809265E+02
1.413258823E+01  1.938179932E+02
1.414732903E+01  1.980793457E+02
1.416206982E+01  2.024324799E+02
1.417681061E+01  2.051447754E+02
1.419155140E+01  2.064703064E+02
1.420629220E+01  2.072655792E+02
1.422103299E+01  2.065776825E+02
1.423577378E+01  2.043297729E+02
1.425051457E+01  1.996369476E+02
1.426525536E+01  1.939006348E+02
1.427999616E+01  1.885897217E+02
1.429473695E+01  1.838058777E+02
1.430947774E+01  1.811695251E+02
1.432421853E+01  1.795274200E+02
1.433895932E+01  1.784105682E+02
1.435370012E+01  1.773192444E+02
1.436844091E+01  1.760071411E+02
1.438318170E+01  1.752692108E+02
1.439792249E+01  1.742343750E+02
1.441266328E+01  1.727562714E+02
1.442740408E+01  1.709784241E+02
1.444214487E+01  1.697323761E+02
1.445688566E+01  1.690114288E+02
1.447162645E+01  1.687046356E+02
1.448636725E+01  1.681978607E+02
1.450110804E+01  1.678607635E+02
1.451584883E+01  1.678791962E+02
1.453058962E+01  1.683691406E+02
1.454533041E+01  1.684639435E+02
1.456007121E+01  1.681159363E+02
1.457481200E+01  1.681391754E+02
1.458955279E+01  1.683254700E+02
1.460429358E+01  1.692705536E+02
1.461903437E+01  1.704086151E+02
1.463377517E+01  1.711517639E+02
1.464851596E+01  1.717261963E+02
1.466325675E+01  1.724706268E+02
1.467799754E+01  1.725957336E+02
1.469273833E+01  1.727252502E+02
1.470747913E+01  1.729513245E+02
1.472221992E+01  1.732133331E+02
1.473696071E+01  1.731454010E+02
1.475170150E+01  1.730935059E+02
1.476644230E+01  1.724722137E+02
1.478118309E+01  1.718586273E+02
1.479592388E+01  1.708350677E+02
1.481066467E+01  1.698361664E+02
1.482540546E+01  1.683632812E+02
1.484014626E+01  1.679356689E+02
1.485488705E+01  1.675662842E+02
1.486962784E+01  1.675437164E+02
1.488436863E+01  1.669959869E+02
1.489910942E+01  1.670686951E+02
1.491385022E+01  1.674107819E+02
1.492859101E+01  1.675643921E+02
1.494333180E+01  1.678110199E+02
1.495807259E+01  1.677977600E+02
1.497281339E+01  1.680951538E+02
1.498755418E+01  1.682612610E+02
1.500229497E+01  1.684530792E+02
1.501703576E+01  1.682466431E+02
1.503177655E+01  1.677993774E+02
1.504651735E+01  1.676834412E+02
1.506125814E+01  1.683850403E+02
1.507599893E+01  1.684514618E+02
1.509073972E+01  1.684209900E+02
1.510548051E+01  1.679676819E+02
1.512022131E+01  1.676256104E+02
1.513496210E+01  1.674228516E+02
1.514970289E+01  1.671414490E+02
1.516444368E+01  1.664935455E+02
1.517918447E+01  1.661477356E+02
1.519392527E+01  1.661100159E+02
1.520866606E+01  1.660812531E+02
1.522340685E+01  1.657143555E+02
1.523814764E+01  1.653311768E+02
1.525288844E+01  1.647316437E+02
1.526762923E+01  1.640229645E+02
1.528237002E+01  1.634391785E+02
1.529711081E+01  1.638580475E+02
1.531185160E+01  1.645326996E+02
1.532659240E+01  1.647241211E+02
1.534133319E+01  1.645711060E+02
1.535607398E+01  1.642505493E+02
1.537081477E+01  1.644090118E+02
1.538555556E+01  1.641829987E+02
1.540029636E+01  1.637915039E+02
1.541503715E+01  1.635591736E+02
1.542977794E+01  1.638290558E+02
1.544451873E+01  1.646377716E+02
1.545925952E+01  1.649215240E+02
1.547400032E+01  1.651446991E+02
1.548874111E+01  1.649367371E+02
1.550348190E+01  1.646109161E+02
1.551822269E+01  1.638466339E+02
1.553296349E+01  1.638016968E+02
1.554770428E+01  1.639925079E+02
1.556244507E+01  1.642234344E+02
1.557718586E+01  1.643960419E+02
1.559192665E+01  1.647275238E+02
1.560666745E+01  1.647404938E+02
1.562140824E+01  1.645368652E+02
1.563614903E+01  1.647502289E+02
1.565088982E+01  1.645837402E+02
1.566563061E+01  1.644681854E+02
1.568037141E+01  1.641196594E+02
1.569511220E+01  1.645703278E+02
1.570985299E+01  1.644481506E+02
1.572459378E+01  1.642170563E+02
1.573933457E+01  1.640351105E+02
1.575407537E+01  1.641165009E+02
1.576881616E+01  1.640489197E+02
1.578355695E+01  1.642594757E+02
1.579829774E+01  1.646384430E+02
1.581303854E+01  1.647242889E+02
1.582777933E+01  1.644409485E+02
1.584252012E+01  1.642131348E+02
1.585726091E+01  1.640190277E+02
1.587200170E+01  1.642640533E+02
1.588674250E+01  1.642953796E+02
1.590148329E+01  1.647098541E+02
1.591622408E+01  1.645362854E+02
1.593096487E+01  1.644614258E+02
1.594570566E+01  1.646653595E+02
1.596044646E+01  1.648667145E+02
1.597518725E+01  1.650117035E+02
1.598992804E+01  1.650390625E+02
1.600466883E+01  1.650855103E+02
1.601940963E+01  1.654181061E+02
1.603415042E+01  1.656940308E+02
1.604889121E+01  1.663323059E+02
1.606363200E+01  1.665538330E+02
1.607837279E+01  1.662815857E+02
1.609311359E+01  1.656407623E+02
1.610785438E+01  1.659859314E+02
1.612259517E+01  1.663813629E+02
1.613733596E+01  1.667663727E+02
1.615207675E+01  1.665479126E+02
1.616681755E+01  1.663851471E+02
1.618155834E+01  1.664023590E+02
1.619629913E+01  1.662458496E+02
1.621103992E+01  1.665813904E+02
1.622578071E+01  1.670744019E+02
1.624052151E+01  1.672673187E+02
1.625526230E+01  1.674486237E+02
1.627000309E+01  1.672118835E+02
1.628474388E+01  1.666549072E+02
1.629948468E+01  1.670776062E+02
1.631422547E+01  1.674933777E+02
1.632896626E+01  1.678012695E+02
1.634370705E+01  1.679564514E+02
1.635844784E+01  1.688031769E+02
1.637318864E+01  1.695540466E+02
1.638792943E+01  1.705796051E+02
1.640267022E+01  1.713275299E+02
1.641741101E+01  1.723407745E+02
1.643215180E+01  1.740444489E+02
1.644689260E+01  1.748940277E+02
1.646163339E+01  1.754738007E+02
1.647637418E+01  1.758194427E+02
1.649111497E+01  1.765166321E+02
1.650585576E+01  1.771026611E+02
1.652059656E+01  1.764815826E+02
1.653533735E+01  1.755139160E+02
1.655007814E+01  1.745784760E+02
1.656481893E+01  1.733719482E+02
1.657955973E+01  1.721106567E+02
1.659430052E+01  1.713368988E+02
1.660904131E+01  1.704218292E+02
1.662378210E+01  1.697166901E+02
1.663852289E+01  1.689791718E+02
1.665326369E+01  1.684110260E+02
1.666800448E+01  1.685956879E+02
1.668274527E+01  1.686777039E+02
1.669748606E+01  1.688110962E+02
1.671222685E+01  1.688794556E+02
1.672696765E+01  1.686147919E+02
1.674170844E+01  1.681312561E+02
1.675644923E+01  1.680375366E+02
1.677119002E+01  1.679815979E+02
1.678593081E+01  1.684648285E+02
1.680067161E+01  1.685794678E+02
1.681541240E+01  1.687700806E+02
1.683015319E+01  1.691691132E+02
1.684489398E+01  1.694027863E+02
1.685963478E+01  1.690814056E+02
1.687437557E+01  1.683176880E+02
1.688911636E+01  1.681950989E+02
1.690385715E+01  1.682866669E+02
1.691859794E+01  1.688153381E+02
1.693333874E+01  1.692552490E+02
1.694807953E+01  1.700756378E+02
1.696282032E+01  1.704450073E+02
1.697756111E+01  1.707665863E+02
1.699230190E+01  1.707986145E+02
1.700704270E+01  1.714484558E+02
1.702178349E+01  1.712317810E+02
1.703652428E+01  1.719359283E+02
1.705126507E+01  1.725880737E+02
1.706600587E+01  1.739089661E+02
1.708074666E+01  1.743653412E+02
1.709548745E+01  1.749727325E+02
1.711022824E+01  1.756598206E+02
1.712496903E+01  1.758384857E+02
1.713970983E+01  1.753874054E+02
1.715445062E+01  1.758297882E+02
1.716919141E+01  1.754819641E+02
1.718393220E+01  1.748188477E+02
1.719867299E+01  1.743959961E+02
1.721341379E+01  1.744854279E+02
1.722815458E+01  1.745415039E+02
1.724289537E+01  1.745198975E+02
1.725763616E+01  1.747306061E+02
1.727237695E+01  1.749818268E+02
1.728711775E+01  1.748054047E+02
1.730185854E+01  1.752448120E+02
1.731659933E+01  1.754764252E+02
1.733134012E+01  1.759712677E+02
1.734608092E+01  1.766651611E+02
1.736082171E+01  1.777624969E+02
1.737556250E+01  1.789918518E+02
1.739030329E+01  1.793050995E+02
1.740504408E+01  1.789952545E+02
1.741978488E+01  1.783211517E+02
1.743452567E+01  1.776101074E+02
1.744926646E+01  1.769750824E+02
1.746400725E+01  1.759174957E+02
1.747874804E+01  1.757917480E+02
1.749348884E+01  1.749435883E+02
1.750822963E+01  1.744750061E+02
1.752297042E+01  1.734283600E+02
1.753771121E+01  1.731007843E+02
1.755245200E+01  1.728035736E+02
1.756719280E+01  1.724565277E+02
1.758193359E+01  1.719890137E+02
1.759667438E+01  1.715208282E+02
1.761141517E+01  1.712229614E+02
1.762615597E+01  1.712910919E+02
1.764089676E+01  1.711201630E+02
1.765563755E+01  1.712184906E+02
1.767037834E+01  1.710668030E+02
1.768511913E+01  1.710749359E+02
1.769985993E+01  1.709559937E+02
1.771460072E+01  1.707088470E+02
1.772934151E+01  1.705181274E+02
1.774408230E+01  1.705218353E+02
1.775882309E+01  1.709313660E+02
1.777356389E+01  1.709534912E+02
1.778830468E+01  1.709901123E+02
1.780304547E+01  1.709261475E+02
1.781778626E+01  1.706807861E+02
1.783252705E+01  1.699216919E+02
1.784726785E+01  1.701587830E+02
1.786200864E+01  1.708295441E+02
1.787674943E+01  1.714246674E+02
1.789149022E+01  1.712523193E+02
1.790623102E+01  1.704091034E+02
1.792097181E+01  1.702440338E+02
1.793571260E+01  1.699493713E+02
1.795045339E+01  1.698186493E+02
1.796519418E+01  1.700701752E+02
1.797993498E+01  1.700239258E+02
1.799467577E+01  1.700682983E+02
1.800941656E+01  1.700270996E+02
1.802415735E+01  1.703885803E+02
1.803889814E+01  1.709353485E+02
1.805363894E+01  1.706865845E+02
1.806837973E+01  1.704284821E+02
1.808312052E+01  1.701305695E+02
1.809786131E+01  1.695054626E+02
1.811260211E+01  1.689655914E+02
1.812734290E+01  1.691348419E+02
1.814208369E+01  1.690711060E+02
1.815682448E+01  1.689212952E+02
1.817156527E+01  1.687668457E+02
1.818630607E+01  1.687338104E+02
1.820104686E+01  1.685994415E+02
1.821578765E+01  1.677775879E+02
1.823052844E+01  1.674926910E+02
1.824526923E+01  1.673658905E+02
1.826001003E+01  1.674893036E+02
1.827475082E+01  1.678302307E+02
1.828949161E+01  1.679270172E+02
1.830423240E+01  1.683655243E+02
1.831897319E+01  1.684054871E+02
1.833371399E+01  1.687969208E+02
1.834845478E+01  1.683766174E+02
1.836319557E+01  1.681390381E+02
1.837793636E+01  1.679669495E+02
1.839267716E+01  1.675997620E+02
1.840741795E+01  1.674140472E+02
1.842215874E+01  1.671541748E+02
1.843689953E+01  1.674015656E+02
1.845164032E+01  1.676950989E+02
1.846638112E+01  1.676271973E+02
1.848112191E+01  1.670264130E+02
1.849586270E+01  1.666634674E+02
1.851060349E+01  1.666689911E+02
1.852534428E+01  1.667438049E+02
1.854008508E+01  1.671465912E+02
1.855482587E+01  1.669022980E+02
1.856956666E+01  1.668169403E+02
1.858430745E+01  1.667547302E+02
1.859904824E+01  1.668345947E+02
1.861378904E+01  1.670037689E+02
1.862852983E+01  1.670230103E+02
1.864327062E+01  1.668045502E+02
1.865801141E+01  1.664732208E+02
1.867275221E+01  1.663185272E+02
1.868749300E+01  1.660910339E+02
1.870223379E+01  1.668087616E+02
1.871697458E+01  1.670551147E+02
1.873171537E+01  1.669385376E+02
1.874645617E+01  1.662772827E+02
1.876119696E+01  1.661723785E+02
1.877593775E+01  1.665735779E+02
1.879067854E+01  1.668498383E+02
1.880541933E+01  1.663168030E+02
1.882016013E+01  1.657406464E+02
1.883490092E+01  1.659138336E+02
1.884964171E+01  1.667306671E+02
1.886438250E+01  1.672239685E+02
1.887912329E+01  1.671082001E+02
1.889386409E+01  1.666423340E+02
1.890860488E+01  1.665608826E+02
1.892334567E+01  1.668820648E+02
1.893808646E+01  1.672570038E+02
1.895282726E+01  1.675832520E+02
1.896756805E+01  1.669855499E+02
1.898230884E+01  1.665644531E+02
1.899704963E+01  1.660005493E+02
1.901179042E+01  1.659460449E+02
1.902653122E+01  1.664815826E+02
1.904127201E+01  1.669182434E+02
1.905601280E+01  1.670721893E+02
1.907075359E+01  1.669653168E+02
1.908549438E+01  1.668422241E+02
1.910023518E+01  1.672953339E+02
1.911497597E+01  1.678043365E+02
1.912971676E+01  1.680657806E+02
1.914445755E+01  1.674473877E+02
1.915919834E+01  1.670245209E+02
1.917393914E+01  1.669590607E+02
1.918867993E+01  1.676559143E+02
1.920342072E+01  1.678755035E+02
1.921816151E+01  1.677303619E+02
1.923290231E+01  1.674371338E+02
1.924764310E+01  1.674479980E+02
1.926238389E+01  1.670240936E+02
1.927712468E+01  1.661997833E+02
1.929186547E+01  1.657586975E+02
1.930660627E+01  1.661150208E+02
1.932134706E+01  1.666508331E+02
1.933608785E+01  1.666827240E+02
1.935082864E+01  1.666030884E+02
1.936556943E+01  1.667385254E+02
1.938031023E+01  1.675254211E+02
1.939505102E+01  1.680106049E+02
1.940979181E+01  1.687487946E+02
1.942453260E+01  1.688230133E+02
1.943927340E+01  1.682756805E+02
1.945401419E+01  1.683357849E+02
1.946875498E+01  1.683471832E+02
1.948349577E+01  1.689376373E+02
1.949823656E+01  1.691111603E+02
1.951297736E+01  1.701135254E+02
1.952771815E+01  1.706800232E+02
1.954245894E+01  1.710107117E+02
1.955719973E+01  1.714225006E+02
1.957194052E+01  1.704383392E+02
1.958668132E+01  1.702214661E+02
1.960142211E+01  1.697435455E+02
1.961616290E+01  1.696579742E+02
1.963090369E+01  1.691735840E+02
1.964564448E+01  1.688380432E+02
1.966038528E+01  1.683294067E+02
1.967512607E+01  1.674143829E+02
1.968986686E+01  1.673046722E+02
1.970460765E+01  1.677115631E+02
1.971934845E+01  1.674688568E+02
1.973408924E+01  1.671733093E+02
1.974883003E+01  1.664857635E+02
1.976357082E+01  1.660901337E+02
1.977831161E+01  1.661026611E+02
1.979305241E+01  1.660515900E+02
1.980779320E+01  1.661813049E+02
1.982253399E+01  1.665590820E+02
1.983727478E+01  1.668946686E+02
1.985201557E+01  1.669836578E+02
1.986675637E+01  1.668467407E+02
1.988149716E+01  1.667599945E+02
1.989623795E+01  1.670111237E+02
1.991097874E+01  1.679039612E+02
1.992571953E+01  1.683695526E+02
1.994046033E+01  1.681829224E+02
1.995520112E+01  1.680073853E+02
1.996994191E+01  1.680221710E+02
1.998468270E+01  1.678885803E+02
1.999942350E+01  1.677780914E+02
2.001416429E+01  1.680262909E+02
2.002890508E+01  1.686336212E+02
2.004364587E+01  1.689982300E+02
2.005838666E+01  1.690427094E+02
2.007312746E+01  1.688913879E+02
2.008786825E+01  1.691724548E+02
2.010260904E+01  1.698731537E+02
2.011734983E+01  1.703273926E+02
2.013209062E+01  1.711112213E+02
2.014683142E+01  1.717247467E+02
2.016157221E+01  1.727668304E+02
2.017631300E+01  1.744755554E+02
2.019105379E+01  1.753911896E+02
2.020579458E+01  1.766043701E+02
2.022053538E+01  1.776058807E+02
2.023527617E+01  1.793722382E+02
2.025001696E+01  1.813769226E+02
2.026475775E+01  1.835634308E+02
2.027949855E+01  1.848898773E+02
2.029423934E+01  1.855607300E+02
2.030898013E+01  1.855104370E+02
2.032372092E+01  1.856861420E+02
2.033846171E+01  1.852186279E+02
2.035320251E+01  1.837551270E+02
2.036794330E+01  1.815720520E+02
2.038268409E+01  1.798030548E+02
2.039742488E+01  1.769011078E+02
2.041216567E+01  1.751668701E+02
2.042690647E+01  1.735795746E+02
2.044164726E+01  1.726637573E+02
2.045638805E+01  1.715227661E+02
2.047112884E+01  1.700504456E+02
2.048586964E+01  1.690810547E+02
2.050061043E+01  1.689077606E+02
2.051535122E+01  1.689799194E+02
2.053009201E+01  1.684254150E+02
2.054483280E+01  1.681373596E+02
2.055957360E+01  1.683972778E+02
2.057431439E+01  1.683955231E+02
2.058905518E+01  1.678169403E+02
2.060379597E+01  1.670274353E+02
2.061853676E+01  1.666042328E+02
2.063327756E+01  1.665436859E+02
2.064801835E+01  1.666543732E+02
2.066275914E+01  1.670720367E+02
2.067749993E+01  1.674170380E+02
2.069224072E+01  1.673131104E+02
2.070698152E+01  1.674475250E+02
2.072172231E+01  1.677679901E+02
2.073646310E+01  1.681577454E+02
2.075120389E+01  1.679384918E+02
2.076594469E+01  1.685291748E+02
2.078068548E+01  1.688621826E+02
2.079542627E+01  1.688364716E+02
2.081016706E+01  1.684132080E+02
2.082490785E+01  1.686163635E+02
2.083964865E+01  1.692231598E+02
2.085438944E+01  1.697329254E+02
2.086913023E+01  1.693189697E+02
2.088387102E+01  1.689271851E+02
2.089861181E+01  1.694194031E+02
2.091335261E+01  1.697591248E+02
2.092809340E+01  1.693896027E+02
2.094283419E+01  1.691745605E+02
2.095757498E+01  1.688312836E+02
2.097231577E+01  1.684285126E+02
2.098705657E+01  1.683707428E+02
2.100179736E+01  1.683583832E+02
2.101653815E+01  1.682839661E+02
2.103127894E+01  1.681239471E+02
2.104601974E+01  1.681218109E+02
2.106076053E+01  1.681534271E+02
2.107550132E+01  1.677917175E+02
2.109024211E+01  1.671450348E+02
2.110498290E+01  1.672732391E+02
2.111972370E+01  1.679006805E+02
2.113446449E+01  1.680760040E+02
2.114920528E+01  1.683981476E+02
2.116394607E+01  1.686354370E+02
2.117868686E+01  1.687996216E+02
2.119342766E+01  1.692294312E+02
2.120816845E+01  1.686789246E+02
2.122290924E+01  1.689448395E+02
2.123765003E+01  1.687906494E+02
2.125239082E+01  1.697206879E+02
2.126713162E+01  1.696594849E+02
2.128187241E+01  1.696358032E+02
2.129661320E+01  1.696737366E+02
2.131135399E+01  1.700146637E+02
2.132609479E+01  1.696984406E+02
2.134083558E+01  1.692707672E+02
2.135557637E+01  1.694556885E+02
2.137031716E+01  1.705482330E+02
2.138505795E+01  1.705938873E+02
2.139979875E+01  1.701958008E+02
2.141453954E+01  1.700463409E+02
2.142928033E+01  1.709332275E+02
2.144402112E+01  1.711461639E+02
2.145876191E+01  1.709294739E+02
2.147350271E+01  1.714141388E+02
2.148824350E+01  1.717727509E+02
2.150298429E+01  1.715867310E+02
2.151772508E+01  1.713932648E+02
2.153246588E+01  1.721742096E+02
2.154720667E+01  1.725023346E+02
2.156194746E+01  1.722734528E+02
2.157668825E+01  1.721891632E+02
2.159142904E+01  1.719504242E+02
2.160616984E+01  1.722648010E+02
2.162091063E+01  1.718344727E+02
2.163565142E+01  1.720821533E+02
2.165039221E+01  1.726338959E+02
2.166513300E+01  1.731639709E+02
2.167987380E+01  1.733365173E+02
2.169461459E+01  1.739983978E+02
2.170935538E+01  1.748012238E+02
2.172409617E+01  1.752376404E+02
2.173883696E+01  1.750231628E+02
2.175357776E+01  1.761316376E+02
2.176831855E+01  1.769749146E+02
2.178305934E+01  1.772761993E+02
2.179780013E+01  1.777697906E+02
2.181254093E+01  1.784102478E+02
2.182728172E+01  1.784988098E+02
2.184202251E+01  1.774555359E+02
2.185676330E+01  1.765394897E+02
2.187150409E+01  1.754702606E+02
2.188624489E+01  1.748149261E+02
2.190098568E+01  1.737619629E+02
2.191572647E+01  1.735130768E+02
2.193046726E+01  1.732847137E+02
2.194520805E+01  1.729902954E+02
2.195994885E+01  1.726099548E+02
2.197468964E+01  1.721788330E+02
2.198943043E+01  1.722758026E+02
2.200417122E+01  1.724989471E+02
2.201891201E+01  1.726651001E+02
2.203365281E+01  1.724445801E+02
2.204839360E+01  1.725106201E+02
2.206313439E+01  1.724970245E+02
2.207787518E+01  1.730226288E+02
2.209261598E+01  1.725566101E+02
2.210735677E+01  1.728796082E+02
2.212209756E+01  1.726632233E+02
2.213683835E+01  1.725257416E+02
2.215157914E+01  1.726023560E+02
2.216631994E+01  1.727778778E+02
2.218106073E+01  1.727716980E+02
2.219580152E+01  1.728728790E+02
2.221054231E+01  1.732157745E+02
2.222528310E+01  1.742231750E+02
2.224002390E+01  1.747794037E+02
2.225476469E+01  1.762344360E+02
2.226950548E+01  1.761965027E+02
2.228424627E+01  1.761543884E+02
2.229898706E+01  1.764240875E+02
2.231372786E+01  1.777161102E+02
2.232846865E+01  1.795825043E+02
2.234320944E+01  1.799965973E+02
2.235795023E+01  1.799032593E+02
2.237269103E+01  1.800052795E+02
2.238743182E+01  1.806012726E+02
2.240217261E+01  1.806416168E+02
2.241691340E+01  1.810049744E+02
2.243165419E+01  1.822985535E+02
2.244639499E+01  1.835274658E+02
2.246113578E+01  1.842312317E+02
2.247587657E+01  1.852932129E+02
2.249061736E+01  1.864386749E+02
2.250535815E+01  1.865021973E+02
2.252009895E+01  1.856811829E+02
2.253483974E+01  1.853242798E+02
2.254958053E+01  1.844766541E+02
2.256432132E+01  1.829644470E+02
2.257906212E+01  1.811390076E+02
2.259380291E+01  1.807464600E+02
2.260854370E+01  1.805634613E+02
2.262328449E+01  1.804633331E+02
2.263802528E+01  1.794888458E+02
2.265276608E+01  1.791175690E+02
2.266750687E+01  1.788800201E+02
2.268224766E+01  1.786664886E+02
2.269698845E+01  1.775671844E+02
2.271172924E+01  1.772161713E+02
2.272647004E+01  1.763661499E+02
2.274121083E+01  1.753692322E+02
2.275595162E+01  1.748560333E+02
2.277069241E+01  1.749955597E+02
2.278543320E+01  1.751900635E+02
2.280017400E+01  1.751750336E+02
2.281491479E+01  1.741883698E+02
2.282965558E+01  1.732875061E+02
2.284439637E+01  1.733794708E+02
2.285913717E+01  1.732011871E+02
2.287387796E+01  1.730460358E+02
2.288861875E+01  1.732318115E+02
2.290335954E+01  1.732550964E+02
2.291810033E+01  1.730116577E+02
2.293284113E+01  1.734763489E+02
2.294758192E+01  1.743864746E+02
2.296232271E+01  1.744642944E+02
2.297706350E+01  1.746883392E+02
2.299180429E+01  1.748017731E+02
2.300654509E+01  1.749308929E+02
2.302128588E+01  1.741857605E+02
2.303602667E+01  1.737735138E+02
2.305076746E+01  1.739109039E+02
2.306550825E+01  1.741867676E+02
2.308024905E+01  1.737202606E+02
2.309498984E+01  1.726560822E+02
2.310973063E+01  1.726163025E+02
2.312447142E+01  1.727119751E+02
2.313921222E+01  1.728168640E+02
2.315395301E+01  1.727744293E+02
2.316869380E+01  1.726486206E+02
2.318343459E+01  1.719316406E+02
2.319817538E+01  1.719438934E+02
2.321291618E+01  1.721741943E+02
2.322765697E+01  1.722424011E+02
2.324239776E+01  1.722967072E+02
2.325713855E+01  1.725723877E+02
2.327187934E+01  1.727736511E+02
2.328662014E+01  1.723224487E+02
2.330136093E+01  1.722000427E+02
2.331610172E+01  1.723665771E+02
2.333084251E+01  1.729490204E+02
2.334558330E+01  1.733252258E+02
2.336032410E+01  1.727787933E+02
2.337506489E+01  1.724914703E+02
2.338980568E+01  1.727507935E+02
2.340454647E+01  1.728986816E+02
2.341928727E+01  1.730815430E+02
2.343402806E+01  1.736407471E+02
2.344876885E+01  1.742860260E+02
2.346350964E+01  1.743422546E+02
2.347825043E+01  1.736368713E+02
2.349299123E+01  1.733731079E+02
2.350773202E+01  1.742936249E+02
2.352247281E+01  1.740892334E+02
2.353721360E+01  1.741859589E+02
2.355195439E+01  1.741391449E+02
2.356669519E+01  1.745324707E+02
2.358143598E+01  1.747415466E+02
2.359617677E+01  1.744201508E+02
2.361091756E+01  1.735955048E+02
2.362565836E+01  1.734251709E+02
2.364039915E+01  1.734601593E+02
2.365513994E+01  1.740050964E+02
2.366988073E+01  1.755027771E+02
2.368462152E+01  1.754169617E+02
2.369936232E+01  1.751352234E+02
2.371410311E+01  1.745439453E+02
2.372884390E+01  1.740949860E+02
2.374358469E+01  1.742716370E+02
2.375832548E+01  1.748127747E+02
2.377306628E+01  1.754010620E+02
2.378780707E+01  1.758418121E+02
2.380254786E+01  1.760915527E+02
2.381728865E+01  1.758764801E+02
2.383202944E+01  1.761991730E+02
2.384677024E+01  1.763303070E+02
2.386151103E+01  1.765360413E+02
2.387625182E+01  1.772364044E+02
2.389099261E+01  1.783513947E+02
2.390573341E+01  1.782214661E+02
2.392047420E+01  1.774201202E+02
2.393521499E+01  1.777186127E+02
2.394995578E+01  1.785929108E+02
2.396469657E+01  1.786194000E+02
2.397943737E+01  1.779374542E+02
2.399417816E+01  1.774727478E+02
2.400891895E+01  1.770321808E+02
2.402365974E+01  1.759085693E+02
2.403840053E+01  1.754713135E+02
2.405314133E+01  1.758680115E+02
2.406788212E+01  1.759979401E+02
2.408262291E+01  1.761879578E+02
2.409736370E+01  1.761078186E+02
2.411210449E+01  1.762376251E+02
2.412684529E+01  1.767135925E+02
2.414158608E+01  1.769408264E+02
2.415632687E+01  1.777125702E+02
2.417106766E+01  1.781460114E+02
2.418580846E+01  1.792093353E+02
2.420054925E+01  1.803410034E+02
2.421529004E+01  1.809598694E+02
2.423003083E+01  1.806490173E+02
2.424477162E+01  1.813604736E+02
2.425951242E+01  1.822334442E+02
2.427425321E+01  1.831491241E+02
2.428899400E+01  1.838139343E+02
2.430373479E+01  1.846043854E+02
2.431847558E+01  1.845183258E+02
2.433321638E+01  1.835928192E+02
2.434795717E+01  1.834348602E+02
2.436269796E+01  1.824952698E+02
2.437743875E+01  1.819803162E+02
2.439217954E+01  1.822502899E+02
2.440692034E+01  1.818997040E+02
2.442166113E+01  1.806950989E+02
2.443640192E+01  1.797972717E+02
2.445114271E+01  1.796448975E+02
2.446588351E+01  1.789053192E+02
2.448062430E+01  1.781449432E+02
2.449536509E+01  1.773997650E+02
2.451010588E+01  1.778965149E+02
2.452484667E+01  1.781975861E+02
2.453958747E+01  1.780384827E+02
2.455432826E+01  1.779227142E+02
2.456906905E+01  1.784720459E+02
2.458380984E+01  1.796303864E+02
2.459855063E+01  1.803703308E+02
2.461329143E+01  1.813161011E+02
2.462803222E+01  1.816912384E+02
2.464277301E+01  1.825711975E+02
2.465751380E+01  1.835271912E+02
2.467225460E+01  1.838880463E+02
2.468699539E+01  1.832268524E+02
2.470173618E+01  1.826730347E+02
2.471647697E+01  1.829177856E+02
2.473121776E+01  1.833435059E+02
2.474595856E+01  1.824530945E+02
2.476069935E+01  1.811672211E+02
2.477544014E+01  1.797546844E+02
2.479018093E+01  1.788666840E+02
2.480492172E+01  1.779378510E+02
2.481966252E+01  1.773551483E+02
2.483440331E+01  1.772401581E+02
2.484914410E+01  1.775164032E+02
2.486388489E+01  1.777460938E+02
2.487862568E+01  1.780512543E+02
2.489336648E+01  1.779768829E+02
2.490810727E+01  1.772125702E+02
2.492284806E+01  1.769681702E+02
2.493758885E+01  1.773465576E+02
2.495232965E+01  1.777862091E+02
2.496707044E+01  1.782808838E+02
2.498181123E+01  1.782235870E+02
2.499655202E+01  1.780574188E+02
2.501129281E+01  1.772511292E+02
2.502603361E+01  1.759692535E+02
2.504077440E+01  1.754146118E+02
2.505551519E+01  1.752130585E+02
2.507025598E+01  1.749671021E+02
2.508499677E+01  1.746361847E+02
2.509973757E+01  1.743789520E+02
2.511447836E+01  1.741437683E+02
2.512921915E+01  1.741273041E+02
2.514395994E+01  1.736815643E+02
2.515870073E+01  1.732510529E+02
2.517344153E+01  1.733365173E+02
2.518818232E+01  1.738202362E+02
2.520292311E+01  1.735003662E+02
2.521766390E+01  1.729832916E+02
2.523240470E+01  1.722091675E+02
2.524714549E+01  1.720922241E+02
2.526188628E+01  1.730989075E+02
2.527662707E+01  1.736006927E+02
2.529136786E+01  1.730633850E+02
2.530610866E+01  1.723873596E+02
2.532084945E+01  1.722130127E+02
2.533559024E+01  1.717754211E+02
2.535033103E+01  1.715088959E+02
2.536507182E+01  1.708346558E+02
2.537981262E+01  1.711126251E+02
2.539455341E+01  1.706933746E+02
2.540929420E+01  1.709074249E+02
2.542403499E+01  1.705994873E+02
2.543877578E+01  1.711340332E+02
2.545351658E+01  1.708209839E+02
2.546825737E+01  1.708664856E+02
2.548299816E+01  1.706966705E+02
2.549773895E+01  1.708797607E+02
2.551247975E+01  1.706265869E+02
2.552722054E+01  1.701974335E+02
2.554196133E+01  1.696980743E+02
2.555670212E+01  1.693209076E+02
2.557144291E+01  1.694006805E+02
2.558618371E+01  1.693859100E+02
2.560092450E+01  1.689937439E+02
2.561566529E+01  1.687328491E+02
2.563040608E+01  1.694568176E+02
2.564514687E+01  1.698757629E+02
2.565988767E+01  1.693794708E+02
2.567462846E+01  1.688656006E+02
2.568936925E+01  1.688837585E+02
2.570411004E+01  1.694587708E+02
2.571885084E+01  1.692869720E+02
2.573359163E+01  1.691535645E+02
2.574833242E+01  1.688782043E+02
2.576307321E+01  1.688591309E+02
2.577781400E+01  1.692552948E+02
2.579255480E+01  1.694754944E+02
2.580729559E+01  1.689242859E+02
2.582203638E+01  1.683285065E+02
2.583677717E+01  1.683078003E+02
2.585151796E+01  1.685862122E+02
2.586625876E+01  1.683923798E+02
2.588099955E+01  1.680484314E+02
2.589574034E+01  1.679200287E+02
2.591048113E+01  1.683971558E+02
2.592522192E+01  1.680720215E+02
2.593996272E+01  1.676655426E+02
2.595470351E+01  1.675072479E+02
2.596944430E+01  1.679611359E+02
2.598418509E+01  1.682998047E+02
2.599892589E+01  1.681851044E+02
2.601366668E+01  1.679660034E+02
2.602840747E+01  1.678464813E+02
2.604314826E+01  1.683662720E+02
2.605788905E+01  1.684777222E+02
2.607262985E+01  1.679426422E+02
2.608737064E+01  1.678941803E+02
2.610211143E+01  1.683980560E+02
2.611685222E+01  1.688532867E+02
2.613159301E+01  1.679953461E+02
2.614633381E+01  1.674303741E+02
2.616107460E+01  1.680968628E+02
2.617581539E+01  1.682086945E+02
2.619055618E+01  1.676557007E+02
2.620529697E+01  1.677012634E+02
2.622003777E+01  1.680206299E+02
2.623477856E+01  1.685040283E+02
2.624951935E+01  1.686308289E+02
2.626426014E+01  1.677463837E+02
2.627900094E+01  1.676185608E+02
2.629374173E+01  1.675455170E+02
2.630848252E+01  1.683581848E+02
2.632322331E+01  1.686855774E+02
2.633796410E+01  1.685436859E+02
2.635270490E+01  1.677183685E+02
2.636744569E+01  1.671463776E+02
2.638218648E+01  1.667817993E+02
2.639692727E+01  1.669906769E+02
2.641166806E+01  1.678414307E+02
2.642640886E+01  1.684720459E+02
2.644114965E+01  1.682915649E+02
2.645589044E+01  1.674380493E+02
2.647063123E+01  1.667589569E+02
2.648537202E+01  1.673578339E+02
2.650011282E+01  1.674394531E+02
2.651485361E+01  1.681783752E+02
2.652959440E+01  1.683205414E+02
2.654433519E+01  1.681632385E+02
2.655907599E+01  1.678041687E+02
2.657381678E+01  1.675242920E+02
2.658855757E+01  1.673681183E+02
2.660329836E+01  1.676475830E+02
2.661803915E+01  1.678734131E+02
2.663277995E+01  1.674326782E+02
2.664752074E+01  1.669878998E+02
2.666226153E+01  1.677644348E+02
2.667700232E+01  1.677707367E+02
2.669174311E+01  1.674879608E+02
2.670648391E+01  1.673364563E+02
2.672122470E+01  1.666844788E+02
2.673596549E+01  1.668648071E+02
2.675070628E+01  1.678389130E+02
2.676544707E+01  1.676192474E+02
2.678018787E+01  1.680763245E+02
2.679492866E+01  1.691315765E+02
2.680966945E+01  1.690750275E+02
2.682441024E+01  1.683697510E+02
2.683915104E+01  1.676104279E+02
2.685389183E+01  1.666341400E+02
2.686863262E+01  1.662525330E+02
2.688337341E+01  1.659492645E+02
2.689811420E+01  1.658872375E+02
2.691285500E+01  1.658825989E+02
2.692759579E+01  1.658038635E+02
2.694233658E+01  1.662450562E+02
2.695707737E+01  1.666533661E+02
2.697181816E+01  1.663946533E+02
2.698655896E+01  1.657916870E+02
2.700129975E+01  1.663462677E+02
2.701604054E+01  1.671869965E+02
2.703078133E+01  1.672049408E+02
2.704552213E+01  1.665922241E+02
2.706026292E+01  1.659856873E+02
2.707500371E+01  1.657990723E+02
2.708974450E+01  1.658809509E+02
2.710448529E+01  1.659737549E+02
2.711922609E+01  1.659367828E+02
2.713396688E+01  1.657311096E+02
2.714870767E+01  1.659341125E+02
2.716344846E+01  1.660014343E+02
2.717818925E+01  1.657679901E+02
2.719293005E+01  1.657922211E+02
2.720767084E+01  1.661622162E+02
2.722241163E+01  1.657486420E+02
2.723715242E+01  1.657065430E+02
2.725189321E+01  1.659674377E+02
2.726663401E+01  1.654940033E+02
2.728137480E+01  1.649510193E+02
2.729611559E+01  1.648865967E+02
2.731085638E+01  1.652285614E+02
2.732559718E+01  1.648835297E+02
2.734033797E+01  1.650955048E+02
2.735507876E+01  1.655200653E+02
2.736981955E+01  1.653645325E+02
2.738456034E+01  1.650691681E+02
2.739930114E+01  1.652145081E+02
2.741404193E+01  1.645239258E+02
2.742878272E+01  1.642320099E+02
2.744352351E+01  1.646901398E+02
2.745826430E+01  1.653568115E+02
2.747300510E+01  1.653965302E+02
2.748774589E+01  1.655589447E+02
2.750248668E+01  1.654320374E+02
2.751722747E+01  1.646613770E+02
2.753196826E+01  1.642704773E+02
2.754670906E+01  1.647006378E+02
2.756144985E+01  1.647291565E+02
2.757619064E+01  1.636112213E+02
2.759093143E+01  1.634196930E+02
2.760567223E+01  1.641115723E+02
2.762041302E+01  1.653171539E+02
2.763515381E+01  1.651601105E+02
2.764989460E+01  1.648247681E+02
2.766463539E+01  1.639813538E+02
2.767937619E+01  1.632915497E+02
2.769411698E+01  1.628448486E+02
2.770885777E+01  1.632384796E+02
2.772359856E+01  1.637489319E+02
2.773833935E+01  1.644055176E+02
2.775308015E+01  1.644010620E+02
2.776782094E+01  1.636081238E+02
2.778256173E+01  1.640655060E+02
2.779730252E+01  1.645343018E+02
2.781204331E+01  1.636956940E+02
2.782678411E+01  1.631262665E+02
2.784152490E+01  1.630436096E+02
2.785626569E+01  1.629428101E+02
2.787100648E+01  1.630055084E+02
2.788574728E+01  1.632116852E+02
2.790048807E+01  1.631240234E+02
2.791522886E+01  1.625787201E+02
2.792996965E+01  1.628356171E+02
2.794471044E+01  1.628749542E+02
2.795945124E+01  1.636481934E+02
2.797419203E+01  1.634055176E+02
2.798893282E+01  1.624626312E+02
2.800367361E+01  1.626692352E+02
2.801841440E+01  1.638805695E+02
2.803315520E+01  1.638352966E+02
2.804789599E+01  1.627757111E+02
2.806263678E+01  1.621420135E+02
2.807737757E+01  1.620771790E+02
2.809211837E+01  1.621567383E+02
2.810685916E+01  1.628679047E+02
2.812159995E+01  1.637940674E+02
2.813634074E+01  1.641530304E+02
2.815108153E+01  1.639370575E+02
2.816582233E+01  1.627039185E+02
2.818056312E+01  1.627407074E+02
2.819530391E+01  1.633848724E+02
2.821004470E+01  1.635237732E+02
2.822478549E+01  1.632011108E+02
2.823952629E+01  1.634382935E+02
2.825426708E+01  1.637037048E+02
2.826900787E+01  1.638558807E+02
2.828374866E+01  1.634492950E+02
2.829848945E+01  1.631335449E+02
2.831323025E+01  1.637168579E+02
2.832797104E+01  1.629864502E+02
2.834271183E+01  1.629566650E+02
2.835745262E+01  1.636709900E+02
2.837219342E+01  1.638266449E+02
2.838693421E+01  1.633040771E+02
2.840167500E+01  1.637122040E+02
2.841641579E+01  1.636187134E+02
2.843115658E+01  1.638539886E+02
2.844589738E+01  1.646120453E+02
2.846063817E+01  1.656601257E+02
2.847537896E+01  1.656087799E+02
2.849011975E+01  1.649286194E+02
2.850486054E+01  1.641873627E+02
2.851960134E+01  1.640848541E+02
2.853434213E+01  1.643633575E+02
2.854908292E+01  1.646621857E+02
2.856382371E+01  1.642556915E+02
2.857856450E+01  1.643287506E+02
2.859330530E+01  1.649679108E+02
2.860804609E+01  1.653912659E+02
2.862278688E+01  1.661097412E+02
2.863752767E+01  1.658310699E+02
2.865226847E+01  1.649821320E+02
2.866700926E+01  1.650357056E+02
2.868175005E+01  1.650689087E+02
2.869649084E+01  1.648921356E+02
2.871123163E+01  1.648603668E+02
2.872597243E+01  1.651554108E+02
2.874071322E+01  1.642812500E+02
2.875545401E+01  1.635671082E+02
2.877019480E+01  1.631187439E+02
2.878493559E+01  1.633343811E+02
2.879967639E+01  1.630039215E+02
2.881441718E+01  1.633028870E+02
2.882915797E+01  1.638394318E+02
2.884389876E+01  1.634755554E+02
2.885863955E+01  1.632408447E+02
2.887338035E+01  1.629835510E+02
2.888812114E+01  1.630930786E+02
2.890286193E+01  1.633232422E+02
2.891760272E+01  1.632059326E+02
2.893234352E+01  1.625014496E+02
2.894708431E+01  1.623495178E+02
2.896182510E+01  1.623317108E+02
2.897656589E+01  1.620745850E+02
2.899130668E+01  1.618604279E+02
2.900604748E+01  1.625962524E+02
2.902078827E+01  1.631207428E+02
2.903552906E+01  1.620707550E+02
2.905026985E+01  1.624233704E+02
2.906501064E+01  1.633796844E+02
2.907975144E+01  1.625769501E+02
2.909449223E+01  1.616125031E+02
2.910923302E+01  1.616773529E+02
2.912397381E+01  1.616445923E+02
2.913871461E+01  1.615091095E+02
2.915345540E+01  1.616023560E+02
2.916819619E+01  1.616097717E+02
2.918293698E+01  1.606107025E+02
2.919767777E+01  1.606675568E+02
2.921241857E+01  1.616692505E+02
2.922715936E+01  1.613444977E+02
2.924190015E+01  1.597123260E+02
2.925664094E+01  1.597161713E+02
2.927138173E+01  1.612918854E+02
2.928612253E+01  1.615310211E+02
2.930086332E+01  1.604122162E+02
2.931560411E+01  1.599372253E+02
2.933034490E+01  1.597713928E+02
2.934508569E+01  1.603949738E+02
2.935982649E+01  1.613560486E+02
2.937456728E+01  1.620180054E+02
2.938930807E+01  1.615311127E+02
2.940404886E+01  1.605930634E+02
2.941878966E+01  1.608950348E+02
2.943353045E+01  1.613412170E+02
2.944827124E+01  1.604221191E+02
2.946301203E+01  1.598486328E+02
2.947775282E+01  1.600159607E+02
2.949249362E+01  1.606606598E+02
2.950723441E+01  1.603332672E+02
2.952197520E+01  1.602205200E+02
2.953671599E+01  1.608436432E+02
2.955145678E+01  1.618283386E+02
2.956619758E+01  1.617926941E+02
2.958093837E+01  1.611722412E+02
2.959567916E+01  1.607635345E+02
2.961041995E+01  1.605070648E+02
2.962516074E+01  1.602550201E+02
2.963990154E+01  1.591513367E+02
2.965464233E+01  1.590602722E+02
2.966938312E+01  1.598680573E+02
2.968412391E+01  1.600181580E+02
2.969886471E+01  1.595598907E+02
2.971360550E+01  1.593207550E+02
2.972834629E+01  1.598553009E+02
2.974308708E+01  1.597841492E+02
2.975782787E+01  1.597447662E+02
2.977256867E+01  1.594083252E+02
2.978730946E+01  1.584086456E+02
2.980205025E+01  1.579927979E+02
2.981679104E+01  1.587342377E+02
2.983153183E+01  1.592506866E+02
2.984627263E+01  1.592680206E+02
2.986101342E+01  1.587593079E+02
2.987575421E+01  1.581495819E+02
2.989049500E+01  1.584575806E+02
2.990523579E+01  1.571188354E+02
2.991997659E+01  1.558118744E+02
2.993471738E+01  1.550231171E+02
2.994945817E+01  1.542880249E+02
2.996419896E+01  1.548470459E+02
2.997893976E+01  1.551791077E+02
2.999368055E+01  1.540382690E+02
3.000842134E+01  1.529159546E+02
3.002316213E+01  1.520574036E+02
3.003790292E+01  1.514589386E+02
3.005264372E+01  1.506653900E+02
3.006738451E+01  1.496353607E+02
3.008212530E+01  1.485056915E+02
3.009686609E+01  1.481657715E+02
3.011160688E+01  1.467606354E+02
3.012634768E+01  1.452612152E+02
3.014108847E+01  1.446903229E+02
3.015582926E+01  1.444348755E+02
3.017057005E+01  1.426869202E+02
3.018531085E+01  1.410761108E+02
3.020005164E+01  1.397172394E+02
3.021479243E+01  1.385667572E+02
3.022953322E+01  1.369158478E+02
3.024427401E+01  1.357298584E+02
3.025901481E+01  1.334540100E+02
3.027375560E+01  1.316981201E+02
3.028849639E+01  1.295905151E+02
3.030323718E+01  1.284925842E+02
3.031797797E+01  1.269947357E+02
3.033271877E+01  1.257514648E+02
3.034745956E+01  1.245448761E+02
3.036220035E+01  1.235610046E+02
3.037694114E+01  1.227792511E+02
3.039168193E+01  1.223658752E+02
3.040642273E+01  1.214066620E+02
3.042116352E+01  1.204190903E+02
3.043590431E+01  1.196370468E+02
3.045064510E+01  1.181871796E+02
3.046538590E+01  1.171485214E+02
3.048012669E+01  1.167797699E+02
3.049486748E+01  1.158825226E+02
3.050960827E+01  1.147159576E+02
3.052434906E+01  1.141884003E+02
3.053908986E+01  1.140756531E+02
3.055383065E+01  1.140598755E+02
3.056857144E+01  1.123581085E+02
3.058331223E+01  1.104827194E+02
3.059805302E+01  1.094968567E+02
3.061279382E+01  1.087838745E+02
3.062753461E+01  1.081685028E+02
3.064227540E+01  1.083974228E+02
3.065701619E+01  1.074077530E+02
3.067175698E+01  1.050842667E+02
3.068649778E+01  1.035049744E+02
3.070123857E+01  1.029079590E+02
3.071597936E+01  1.027508469E+02
3.073072015E+01  1.021936111E+02
3.074546095E+01  1.014822006E+02
3.076020174E+01  9.996300507E+01
3.077494253E+01  9.872656250E+01
3.078968332E+01  9.763432312E+01
3.080442411E+01  9.721517944E+01
3.081916491E+01  9.619410706E+01
3.083390570E+01  9.565081024E+01
3.084864649E+01  9.491052246E+01
3.086338728E+01  9.362076569E+01
3.087812807E+01  9.254209137E+01
3.089286887E+01  9.168365479E+01
3.090760966E+01  9.088435364E+01
3.092235045E+01  9.001961517E+01
3.093709124E+01  8.898741913E+01
3.095183203E+01  8.833983612E+01
3.096657283E+01  8.758406067E+01
3.098131362E+01  8.647132874E+01
3.099605441E+01  8.545100403E+01
3.101079520E+01  8.504899597E+01
3.102553600E+01  8.379199982E+01
3.104027679E+01  8.270530701E+01
3.105501758E+01  8.229462433E+01
3.106975837E+01  8.112873840E+01
3.108449916E+01  7.963279724E+01
3.109923996E+01  7.852544403E+01
3.111398075E+01  7.776284027E+01
3.112872154E+01  7.707936859E+01
3.114346233E+01  7.567996979E+01
3.115820312E+01  7.472100830E+01
3.117294392E+01  7.401454163E+01
3.118768471E+01  7.341864777E+01
3.120242550E+01  7.312708282E+01
3.121716629E+01  7.274949646E+01
3.123190709E+01  7.144544983E+01
3.124664788E+01  6.958642578E+01
3.126138867E+01  6.863407135E+01
3.127612946E+01  6.849383545E+01
3.129087025E+01  6.800806427E+01
3.130561105E+01  6.705184174E+01
3.132035184E+01  6.604960632E+01
3.133509263E+01  6.467565155E+01
3.134983342E+01  6.355049133E+01
3.136457421E+01  6.284091949E+01
3.137931501E+01  6.233520508E+01
3.139405580E+01  6.170609665E+01
3.140879659E+01  6.092251205E+01
3.142353738E+01  5.963718033E+01
3.143827817E+01  5.814001083E+01
3.145301897E+01  5.725137329E+01
3.146775976E+01  5.648968506E+01
3.148250055E+01  5.599136353E+01
3.149724134E+01  5.532668304E+01
3.151198214E+01  5.425120926E+01
3.152672293E+01  5.366156387E+01
3.154146372E+01  5.271089554E+01
3.155620451E+01  5.180793381E+01
3.157094530E+01  5.164196777E+01
3.158568610E+01  5.134064865E+01
3.160042689E+01  5.033570480E+01
3.161516768E+01  4.929842758E+01
3.162990847E+01  4.814667511E+01
3.164464926E+01  4.818368912E+01
3.165939006E+01  4.835631180E+01
3.167413085E+01  4.677390289E+01
3.168887164E+01  4.475897980E+01
3.170361243E+01  4.361886215E+01
3.171835322E+01  4.365426636E+01
3.173309402E+01  4.293677902E+01
3.174783481E+01  4.203900528E+01
3.176257560E+01  4.181003571E+01
3.177731639E+01  4.146215820E+01
3.179205719E+01  4.049123383E+01
3.180679798E+01  3.939931107E+01
3.182153877E+01  3.827748871E+01
3.183627956E+01  3.778472900E+01
3.185102035E+01  3.876569366E+01
3.186576115E+01  3.750212479E+01
3.188050194E+01  3.526254654E+01
3.189524273E+01  3.456961823E+01
3.190998352E+01  3.610080719E+01
3.192472431E+01  3.534679794E+01
3.193946511E+01  3.378294373E+01
3.195420590E+01  3.151367378E+01
3.196894669E+01  3.239175415E+01
3.198368748E+01  3.335383224E+01
3.199842827E+01  3.430661011E+01
3.201316907E+01  3.414114380E+01
3.202790986E+01  2.155586243E+01
3.204265065E+01  2.155586243E+01
3.205739144E+01  3.137138557E+01
3.207213224E+01  2.690124321E+01
3.208687303E+01  2.501391411E+01
