# == pyFAI calibration ==
# Distance Sample to Detector: 0.11507480176033233 m
# PONI: 5.477e-03, 4.716e-03 m
# Rotations: 0.004686 0.005536 0.000000 rad
# 
# == Fit2d calibration ==
# Distance Sample-beamCenter: 115.078 mm
# Center: x=55.690, y=81.516 pix
# Tilt: 0.416 deg  TiltPlanRot: 130.247 deg
# 
# Detector Detector	 Spline= None	 PixelSize= 7.500e-05, 7.500e-05 m
#    Detector has a mask: False 
#    Detector has a dark current: False 
#    detector has a flat field: False 
# 
# Wavelength: 4.833e-11 m
# Mask applied: None
# Dark current applied: None
# Flat field applied: None
# Polarization factor: None
# Normalization factor: None
#
# 2th_deg	 I
1.131209591E+00  3.554620743E+01
1.145950384E+00  4.232464981E+01
1.160691176E+00  4.961312866E+01
1.175431968E+00  5.513292313E+01
1.190172760E+00  6.202753830E+01
1.204913552E+00  6.796228790E+01
1.219654344E+00  7.306849670E+01
1.234395136E+00  7.671234131E+01
1.249135928E+00  8.131728363E+01
1.263876720E+00  8.777696228E+01
1.278617513E+00  9.108289337E+01
1.293358305E+00  9.396640015E+01
1.308099097E+00  9.445958710E+01
1.322839889E+00  9.709825897E+01
1.337580681E+00  9.982300568E+01
1.352321473E+00  1.011178436E+02
1.367062265E+00  1.041203079E+02
1.381803057E+00  1.053185730E+02
1.396543850E+00  1.072987366E+02
1.411284642E+00  1.081823425E+02
1.426025434E+00  1.085045929E+02
1.440766226E+00  1.106194000E+02
1.455507018E+00  1.125693970E+02
1.470247810E+00  1.134778290E+02
1.484988602E+00  1.154798889E+02
1.499729394E+00  1.151492386E+02
1.514470186E+00  1.163963165E+02
1.529210979E+00  1.176675644E+02
1.543951771E+00  1.189154282E+02
1.558692563E+00  1.210918732E+02
1.573433355E+00  1.215503616E+02
1.588174147E+00  1.217109680E+02
1.602914939E+00  1.220723495E+02
1.617655731E+00  1.228002777E+02
1.632396523E+00  1.236580353E+02
1.647137315E+00  1.255692444E+02
1.661878108E+00  1.265584641E+02
1.676618900E+00  1.257770004E+02
1.691359692E+00  1.260879745E+02
1.706100484E+00  1.263375854E+02
1.720841276E+00  1.284104004E+02
1.735582068E+00  1.295847015E+02
1.750322860E+00  1.301746826E+02
1.765063652E+00  1.288970947E+02
1.779804444E+00  1.288449249E+02
1.794545237E+00  1.297552032E+02
1.809286029E+00  1.316116638E+02
1.824026821E+00  1.322426605E+02
1.838767613E+00  1.322500916E+02
1.853508405E+00  1.332619171E+02
1.868249197E+00  1.333139496E+02
1.882989989E+00  1.337864380E+02
1.897730781E+00  1.339807281E+02
1.912471573E+00  1.349318237E+02
1.927212366E+00  1.355051422E+02
1.941953158E+00  1.353801575E+02
1.956693950E+00  1.364867401E+02
1.971434742E+00  1.379815979E+02
1.986175534E+00  1.393337708E+02
2.000916326E+00  1.401419678E+02
2.015657118E+00  1.402890930E+02
2.030397910E+00  1.406886292E+02
2.045138702E+00  1.407224274E+02
2.059879495E+00  1.410130920E+02
2.074620287E+00  1.420053558E+02
2.089361079E+00  1.431045837E+02
2.104101871E+00  1.438600616E+02
2.118842663E+00  1.445824890E+02
2.133583455E+00  1.451320038E+02
2.148324247E+00  1.464359589E+02
2.163065039E+00  1.465576477E+02
2.177805831E+00  1.468575897E+02
2.192546624E+00  1.469505920E+02
2.207287416E+00  1.471173096E+02
2.222028208E+00  1.479896393E+02
2.236769000E+00  1.482493591E+02
2.251509792E+00  1.482805634E+02
2.266250584E+00  1.488382111E+02
2.280991376E+00  1.496788025E+02
2.295732168E+00  1.503250885E+02
2.310472960E+00  1.500727692E+02
2.325213753E+00  1.497206726E+02
2.339954545E+00  1.499550171E+02
2.354695337E+00  1.501550293E+02
2.369436129E+00  1.508653564E+02
2.384176921E+00  1.508840942E+02
2.398917713E+00  1.509635468E+02
2.413658505E+00  1.510389862E+02
2.428399297E+00  1.512763977E+02
2.443140089E+00  1.515132599E+02
2.457880882E+00  1.515763245E+02
2.472621674E+00  1.517904816E+02
2.487362466E+00  1.521272583E+02
2.502103258E+00  1.524046021E+02
2.516844050E+00  1.521923828E+02
2.531584842E+00  1.522006683E+02
2.546325634E+00  1.521953583E+02
2.561066426E+00  1.519511871E+02
2.575807219E+00  1.519773407E+02
2.590548011E+00  1.517320099E+02
2.605288803E+00  1.519319305E+02
2.620029595E+00  1.511096497E+02
2.634770387E+00  1.506901093E+02
2.649511179E+00  1.507454224E+02
2.664251971E+00  1.511214752E+02
2.678992763E+00  1.509964447E+02
2.693733555E+00  1.506977539E+02
2.708474348E+00  1.510806122E+02
2.723215140E+00  1.508784637E+02
2.737955932E+00  1.516193390E+02
2.752696724E+00  1.511334991E+02
2.767437516E+00  1.509598694E+02
2.782178308E+00  1.505162659E+02
2.796919100E+00  1.508355255E+02
2.811659892E+00  1.504564056E+02
2.826400684E+00  1.500059967E+02
2.841141477E+00  1.492514801E+02
2.855882269E+00  1.488832550E+02
2.870623061E+00  1.486964264E+02
2.885363853E+00  1.487990875E+02
2.900104645E+00  1.484882812E+02
2.914845437E+00  1.482312469E+02
2.929586229E+00  1.478008270E+02
2.944327021E+00  1.472652740E+02
2.959067813E+00  1.473138733E+02
2.973808606E+00  1.472066193E+02
2.988549398E+00  1.472280426E+02
3.003290190E+00  1.469598541E+02
3.018030982E+00  1.478233337E+02
3.032771774E+00  1.484250031E+02
3.047512566E+00  1.485917053E+02
3.062253358E+00  1.485160980E+02
3.076994150E+00  1.478576813E+02
3.091734942E+00  1.473962708E+02
3.106475735E+00  1.466034241E+02
3.121216527E+00  1.462881622E+02
3.135957319E+00  1.463228302E+02
3.150698111E+00  1.468183594E+02
3.165438903E+00  1.467879791E+02
3.180179695E+00  1.464888153E+02
3.194920487E+00  1.468620453E+02
3.209661279E+00  1.470707397E+02
3.224402071E+00  1.468825531E+02
3.239142864E+00  1.461488647E+02
3.253883656E+00  1.462869263E+02
3.268624448E+00  1.465476074E+02
3.283365240E+00  1.467558289E+02
3.298106032E+00  1.470014038E+02
3.312846824E+00  1.469663544E+02
3.327587616E+00  1.473957214E+02
3.342328408E+00  1.474517365E+02
3.357069200E+00  1.471255341E+02
3.371809993E+00  1.464771271E+02
3.386550785E+00  1.458805237E+02
3.401291577E+00  1.456509857E+02
3.416032369E+00  1.457897797E+02
3.430773161E+00  1.454701385E+02
3.445513953E+00  1.451671295E+02
3.460254745E+00  1.450506897E+02
3.474995537E+00  1.450962372E+02
3.489736329E+00  1.452231140E+02
3.504477122E+00  1.447074280E+02
3.519217914E+00  1.440417633E+02
3.533958706E+00  1.436997070E+02
3.548699498E+00  1.441979523E+02
3.563440290E+00  1.447572327E+02
3.578181082E+00  1.450367737E+02
3.592921874E+00  1.454701080E+02
3.607662666E+00  1.462769928E+02
3.622403458E+00  1.464470978E+02
3.637144251E+00  1.470907135E+02
3.651885043E+00  1.461169434E+02
3.666625835E+00  1.454438934E+02
3.681366627E+00  1.437642059E+02
3.696107419E+00  1.428267517E+02
3.710848211E+00  1.418182983E+02
3.725589003E+00  1.414174347E+02
3.740329795E+00  1.419187317E+02
3.755070587E+00  1.418722382E+02
3.769811380E+00  1.415873566E+02
3.784552172E+00  1.425014191E+02
3.799292964E+00  1.432845612E+02
3.814033756E+00  1.441114349E+02
3.828774548E+00  1.445981903E+02
3.843515340E+00  1.452372437E+02
3.858256132E+00  1.456686707E+02
3.872996924E+00  1.449953461E+02
3.887737717E+00  1.451214447E+02
3.902478509E+00  1.443331451E+02
3.917219301E+00  1.439827728E+02
3.931960093E+00  1.427069702E+02
3.946700885E+00  1.417382050E+02
3.961441677E+00  1.410082092E+02
3.976182469E+00  1.399573059E+02
3.990923261E+00  1.398259735E+02
4.005664053E+00  1.396581421E+02
4.020404846E+00  1.392679443E+02
4.035145638E+00  1.385773773E+02
4.049886430E+00  1.380407562E+02
4.064627222E+00  1.377856445E+02
4.079368014E+00  1.375784454E+02
4.094108806E+00  1.372923431E+02
4.108849598E+00  1.371645050E+02
4.123590390E+00  1.368195648E+02
4.138331182E+00  1.366995697E+02
4.153071975E+00  1.360013580E+02
4.167812767E+00  1.363360443E+02
4.182553559E+00  1.360341187E+02
4.197294351E+00  1.355357971E+02
4.212035143E+00  1.348230591E+02
4.226775935E+00  1.345281525E+02
4.241516727E+00  1.346003113E+02
4.256257519E+00  1.344448700E+02
4.270998311E+00  1.334402618E+02
4.285739104E+00  1.330607147E+02
4.300479896E+00  1.324014893E+02
4.315220688E+00  1.323858337E+02
4.329961480E+00  1.321451721E+02
4.344702272E+00  1.316507263E+02
4.359443064E+00  1.306197662E+02
4.374183856E+00  1.297239075E+02
4.388924648E+00  1.301055756E+02
4.403665440E+00  1.302959290E+02
4.418406233E+00  1.306780396E+02
4.433147025E+00  1.304806824E+02
4.447887817E+00  1.305148010E+02
4.462628609E+00  1.299425507E+02
4.477369401E+00  1.292651978E+02
4.492110193E+00  1.292002258E+02
4.506850985E+00  1.285196075E+02
4.521591777E+00  1.287096558E+02
4.536332569E+00  1.285164490E+02
4.551073362E+00  1.286934052E+02
4.565814154E+00  1.293345490E+02
4.580554946E+00  1.302748108E+02
4.595295738E+00  1.299469910E+02
4.610036530E+00  1.296278381E+02
4.624777322E+00  1.290424347E+02
4.639518114E+00  1.290282288E+02
4.654258906E+00  1.287794189E+02
4.668999698E+00  1.282054901E+02
4.683740491E+00  1.272381973E+02
4.698481283E+00  1.269867859E+02
4.713222075E+00  1.268214493E+02
4.727962867E+00  1.267274399E+02
4.742703659E+00  1.268533173E+02
4.757444451E+00  1.266012878E+02
4.772185243E+00  1.262732391E+02
4.786926035E+00  1.264271011E+02
4.801666827E+00  1.262441940E+02
4.816407620E+00  1.262477341E+02
4.831148412E+00  1.262100830E+02
4.845889204E+00  1.258755569E+02
4.860629996E+00  1.255033951E+02
4.875370788E+00  1.252700500E+02
4.890111580E+00  1.255552063E+02
4.904852372E+00  1.256382217E+02
4.919593164E+00  1.259168091E+02
4.934333956E+00  1.259341431E+02
4.949074749E+00  1.250219269E+02
4.963815541E+00  1.244999847E+02
4.978556333E+00  1.240121765E+02
4.993297125E+00  1.247922592E+02
5.008037917E+00  1.246019745E+02
5.022778709E+00  1.242336502E+02
5.037519501E+00  1.234025574E+02
5.052260293E+00  1.235954666E+02
5.067001086E+00  1.236034470E+02
5.081741878E+00  1.238096466E+02
5.096482670E+00  1.238951797E+02
5.111223462E+00  1.240658646E+02
5.125964254E+00  1.238553009E+02
5.140705046E+00  1.239139938E+02
5.155445838E+00  1.237598190E+02
5.170186630E+00  1.231426010E+02
5.184927422E+00  1.222622070E+02
5.199668215E+00  1.218780060E+02
5.214409007E+00  1.214786377E+02
5.229149799E+00  1.214811554E+02
5.243890591E+00  1.214977341E+02
5.258631383E+00  1.212757111E+02
5.273372175E+00  1.215988846E+02
5.288112967E+00  1.211999969E+02
5.302853759E+00  1.211274338E+02
5.317594551E+00  1.212578888E+02
5.332335344E+00  1.210844955E+02
5.347076136E+00  1.204981003E+02
5.361816928E+00  1.205418854E+02
5.376557720E+00  1.207122803E+02
5.391298512E+00  1.209695587E+02
5.406039304E+00  1.206275406E+02
5.420780096E+00  1.207809067E+02
5.435520888E+00  1.205411606E+02
5.450261680E+00  1.208496552E+02
5.465002473E+00  1.208232651E+02
5.479743265E+00  1.207130814E+02
5.494484057E+00  1.204616089E+02
5.509224849E+00  1.200713501E+02
5.523965641E+00  1.200994644E+02
5.538706433E+00  1.201267319E+02
5.553447225E+00  1.202167816E+02
5.568188017E+00  1.201000214E+02
5.582928809E+00  1.200724640E+02
5.597669602E+00  1.196915665E+02
5.612410394E+00  1.196498642E+02
5.627151186E+00  1.200634766E+02
5.641891978E+00  1.203798523E+02
5.656632770E+00  1.213237381E+02
5.671373562E+00  1.214454498E+02
5.686114354E+00  1.216831436E+02
5.700855146E+00  1.211678391E+02
5.715595938E+00  1.206827240E+02
5.730336731E+00  1.205590057E+02
5.745077523E+00  1.211137009E+02
5.759818315E+00  1.211063843E+02
5.774559107E+00  1.207975082E+02
5.789299899E+00  1.201320877E+02
5.804040691E+00  1.202863617E+02
5.818781483E+00  1.200440445E+02
5.833522275E+00  1.195629425E+02
5.848263067E+00  1.190411530E+02
5.863003860E+00  1.188206482E+02
5.877744652E+00  1.190248413E+02
5.892485444E+00  1.194402542E+02
5.907226236E+00  1.200106583E+02
5.921967028E+00  1.199466248E+02
5.936707820E+00  1.198073578E+02
5.951448612E+00  1.188844604E+02
5.966189404E+00  1.194482727E+02
5.980930196E+00  1.195036926E+02
5.995670989E+00  1.198058929E+02
6.010411781E+00  1.199495926E+02
6.025152573E+00  1.197094269E+02
6.039893365E+00  1.196478119E+02
6.054634157E+00  1.197917328E+02
6.069374949E+00  1.199180527E+02
6.084115741E+00  1.202421570E+02
6.098856533E+00  1.203337479E+02
6.113597325E+00  1.199802628E+02
6.128338118E+00  1.195846481E+02
6.143078910E+00  1.194030609E+02
6.157819702E+00  1.196796875E+02
6.172560494E+00  1.196037598E+02
6.187301286E+00  1.198286285E+02
6.202042078E+00  1.200647736E+02
6.216782870E+00  1.200131989E+02
6.231523662E+00  1.197768250E+02
6.246264454E+00  1.195143967E+02
6.261005247E+00  1.195997086E+02
6.275746039E+00  1.198134995E+02
6.290486831E+00  1.194687500E+02
6.305227623E+00  1.197320938E+02
6.319968415E+00  1.202897186E+02
6.334709207E+00  1.206068192E+02
6.349449999E+00  1.203706589E+02
6.364190791E+00  1.200764236E+02
6.378931584E+00  1.201608124E+02
6.393672376E+00  1.208146667E+02
6.408413168E+00  1.210834885E+02
6.423153960E+00  1.214853210E+02
6.437894752E+00  1.209713440E+02
6.452635544E+00  1.210684662E+02
6.467376336E+00  1.212060776E+02
6.482117128E+00  1.211820221E+02
6.496857920E+00  1.210973892E+02
6.511598713E+00  1.212235184E+02
6.526339505E+00  1.213371811E+02
6.541080297E+00  1.214405594E+02
6.555821089E+00  1.219874115E+02
6.570561881E+00  1.219928207E+02
6.585302673E+00  1.217931900E+02
6.600043465E+00  1.210300293E+02
6.614784257E+00  1.212444305E+02
6.629525049E+00  1.212017746E+02
6.644265842E+00  1.212637024E+02
6.659006634E+00  1.210000687E+02
6.673747426E+00  1.207982941E+02
6.688488218E+00  1.209234543E+02
6.703229010E+00  1.218247833E+02
6.717969802E+00  1.225577011E+02
6.732710594E+00  1.226871490E+02
6.747451386E+00  1.226178741E+02
6.762192178E+00  1.224015808E+02
6.776932971E+00  1.226179504E+02
6.791673763E+00  1.224973145E+02
6.806414555E+00  1.226892242E+02
6.821155347E+00  1.224573593E+02
6.835896139E+00  1.221006165E+02
6.850636931E+00  1.219006424E+02
6.865377723E+00  1.219276047E+02
6.880118515E+00  1.220942307E+02
6.894859307E+00  1.221684799E+02
6.909600100E+00  1.220766144E+02
6.924340892E+00  1.217996902E+02
6.939081684E+00  1.222963486E+02
6.953822476E+00  1.223121567E+02
6.968563268E+00  1.224019928E+02
6.983304060E+00  1.220820160E+02
6.998044852E+00  1.222174377E+02
7.012785644E+00  1.221833649E+02
7.027526436E+00  1.222562637E+02
7.042267229E+00  1.224769363E+02
7.057008021E+00  1.227626114E+02
7.071748813E+00  1.228914871E+02
7.086489605E+00  1.228823090E+02
7.101230397E+00  1.224431000E+02
7.115971189E+00  1.220774841E+02
7.130711981E+00  1.222166061E+02
7.145452773E+00  1.223894882E+02
7.160193565E+00  1.222769547E+02
7.174934358E+00  1.226297760E+02
7.189675150E+00  1.228829346E+02
7.204415942E+00  1.231707153E+02
7.219156734E+00  1.232681122E+02
7.233897526E+00  1.231416016E+02
7.248638318E+00  1.230882416E+02
7.263379110E+00  1.231416550E+02
7.278119902E+00  1.229897461E+02
7.292860694E+00  1.227506104E+02
7.307601487E+00  1.226247101E+02
7.322342279E+00  1.233678894E+02
7.337083071E+00  1.240339050E+02
7.351823863E+00  1.238273239E+02
7.366564655E+00  1.232900848E+02
7.381305447E+00  1.228862381E+02
7.396046239E+00  1.229910126E+02
7.410787031E+00  1.231950531E+02
7.425527823E+00  1.229869156E+02
7.440268616E+00  1.229403687E+02
7.455009408E+00  1.233870316E+02
7.469750200E+00  1.239700165E+02
7.484490992E+00  1.246702652E+02
7.499231784E+00  1.246627045E+02
7.513972576E+00  1.248331833E+02
7.528713368E+00  1.248341904E+02
7.543454160E+00  1.249186707E+02
7.558194953E+00  1.248339005E+02
7.572935745E+00  1.249999084E+02
7.587676537E+00  1.251170654E+02
7.602417329E+00  1.252108154E+02
7.617158121E+00  1.248845062E+02
7.631898913E+00  1.245882950E+02
7.646639705E+00  1.249257202E+02
7.661380497E+00  1.252064438E+02
7.676121289E+00  1.254327469E+02
7.690862082E+00  1.257975082E+02
7.705602874E+00  1.258211670E+02
7.720343666E+00  1.261539230E+02
7.735084458E+00  1.261690826E+02
7.749825250E+00  1.265362930E+02
7.764566042E+00  1.268371048E+02
7.779306834E+00  1.268595123E+02
7.794047626E+00  1.269755096E+02
7.808788418E+00  1.270274506E+02
7.823529211E+00  1.270195694E+02
7.838270003E+00  1.271378098E+02
7.853010795E+00  1.274411697E+02
7.867751587E+00  1.274445877E+02
7.882492379E+00  1.275810165E+02
7.897233171E+00  1.277800369E+02
7.911973963E+00  1.286504974E+02
7.926714755E+00  1.293175659E+02
7.941455547E+00  1.302383881E+02
7.956196340E+00  1.308255157E+02
7.970937132E+00  1.316598969E+02
7.985677924E+00  1.322438965E+02
8.000418716E+00  1.328918304E+02
8.015159508E+00  1.338454590E+02
8.029900300E+00  1.350637970E+02
8.044641092E+00  1.357929688E+02
8.059381884E+00  1.373794861E+02
8.074122676E+00  1.392365265E+02
8.088863469E+00  1.408357544E+02
8.103604261E+00  1.421382599E+02
8.118345053E+00  1.430418701E+02
8.133085845E+00  1.442846680E+02
8.147826637E+00  1.441575623E+02
8.162567429E+00  1.438089752E+02
8.177308221E+00  1.430775604E+02
8.192049013E+00  1.422324219E+02
8.206789805E+00  1.426127319E+02
8.221530598E+00  1.435088654E+02
8.236271390E+00  1.451055298E+02
8.251012182E+00  1.465614624E+02
8.265752974E+00  1.480973969E+02
8.280493766E+00  1.494602356E+02
8.295234558E+00  1.519721222E+02
8.309975350E+00  1.552056427E+02
8.324716142E+00  1.600605927E+02
8.339456934E+00  1.652472839E+02
8.354197727E+00  1.706180878E+02
8.368938519E+00  1.749707794E+02
8.383679311E+00  1.785026703E+02
8.398420103E+00  1.804235535E+02
8.413160895E+00  1.797913208E+02
8.427901687E+00  1.753170319E+02
8.442642479E+00  1.690167847E+02
8.457383271E+00  1.635048065E+02
8.472124063E+00  1.578120117E+02
8.486864856E+00  1.532963715E+02
8.501605648E+00  1.494639740E+02
8.516346440E+00  1.484552307E+02
8.531087232E+00  1.491934204E+02
8.545828024E+00  1.497667542E+02
8.560568816E+00  1.482544250E+02
8.575309608E+00  1.458689270E+02
8.590050400E+00  1.439454193E+02
8.604791192E+00  1.430175171E+02
8.619531985E+00  1.422514648E+02
8.634272777E+00  1.415996857E+02
8.649013569E+00  1.411418762E+02
8.663754361E+00  1.411478882E+02
8.678495153E+00  1.414093018E+02
8.693235945E+00  1.412952423E+02
8.707976737E+00  1.413917236E+02
8.722717529E+00  1.413660431E+02
8.737458321E+00  1.412626038E+02
8.752199114E+00  1.409968872E+02
8.766939906E+00  1.411053925E+02
8.781680698E+00  1.415369568E+02
8.796421490E+00  1.423147583E+02
8.811162282E+00  1.431433563E+02
8.825903074E+00  1.441478424E+02
8.840643866E+00  1.445147247E+02
8.855384658E+00  1.446076202E+02
8.870125451E+00  1.450112915E+02
8.884866243E+00  1.457032318E+02
8.899607035E+00  1.462903748E+02
8.914347827E+00  1.467731781E+02
8.929088619E+00  1.479207153E+02
8.943829411E+00  1.490199280E+02
8.958570203E+00  1.495141907E+02
8.973310995E+00  1.498907013E+02
8.988051787E+00  1.498291931E+02
9.002792580E+00  1.498137817E+02
9.017533372E+00  1.495752869E+02
9.032274164E+00  1.494020538E+02
9.047014956E+00  1.499885254E+02
9.061755748E+00  1.502581940E+02
9.076496540E+00  1.512893219E+02
9.091237332E+00  1.516673126E+02
9.105978124E+00  1.523730164E+02
9.120718916E+00  1.522593689E+02
9.135459709E+00  1.523335419E+02
9.150200501E+00  1.524672241E+02
9.164941293E+00  1.526342926E+02
9.179682085E+00  1.528482971E+02
9.194422877E+00  1.534484406E+02
9.209163669E+00  1.536369019E+02
9.223904461E+00  1.535226898E+02
9.238645253E+00  1.532192383E+02
9.253386045E+00  1.527226562E+02
9.268126838E+00  1.533405304E+02
9.282867630E+00  1.539461365E+02
9.297608422E+00  1.552634430E+02
9.312349214E+00  1.560562592E+02
9.327090006E+00  1.565257111E+02
9.341830798E+00  1.568353882E+02
9.356571590E+00  1.571446991E+02
9.371312382E+00  1.579888458E+02
9.386053174E+00  1.586535492E+02
9.400793967E+00  1.592652283E+02
9.415534759E+00  1.598496399E+02
9.430275551E+00  1.598511047E+02
9.445016343E+00  1.597636719E+02
9.459757135E+00  1.597492523E+02
9.474497927E+00  1.595847473E+02
9.489238719E+00  1.604443665E+02
9.503979511E+00  1.606527405E+02
9.518720303E+00  1.608859253E+02
9.533461096E+00  1.606716461E+02
9.548201888E+00  1.613695068E+02
9.562942680E+00  1.623756866E+02
9.577683472E+00  1.630926208E+02
9.592424264E+00  1.635346527E+02
9.607165056E+00  1.643152618E+02
9.621905848E+00  1.657331085E+02
9.636646640E+00  1.667942352E+02
9.651387432E+00  1.674976807E+02
9.666128225E+00  1.676411438E+02
9.680869017E+00  1.683495178E+02
9.695609809E+00  1.695810394E+02
9.710350601E+00  1.733642883E+02
9.725091393E+00  1.779685364E+02
9.739832185E+00  1.842425995E+02
9.754572977E+00  1.929093323E+02
9.769313769E+00  2.019059143E+02
9.784054561E+00  2.110475159E+02
9.798795354E+00  2.165731659E+02
9.813536146E+00  2.176752625E+02
9.828276938E+00  2.131957397E+02
9.843017730E+00  2.058157806E+02
9.857758522E+00  1.954410248E+02
9.872499314E+00  1.868538361E+02
9.887240106E+00  1.809319763E+02
9.901980898E+00  1.776684875E+02
9.916721690E+00  1.766898956E+02
9.931462483E+00  1.766268921E+02
9.946203275E+00  1.781559143E+02
9.960944067E+00  1.805366364E+02
9.975684859E+00  1.829824829E+02
9.990425651E+00  1.853899536E+02
1.000516644E+01  1.886684570E+02
1.001990724E+01  1.913294525E+02
1.003464803E+01  1.919569397E+02
1.004938882E+01  1.914262543E+02
1.006412961E+01  1.908983307E+02
1.007887040E+01  1.899566193E+02
1.009361120E+01  1.875629425E+02
1.010835199E+01  1.843667755E+02
1.012309278E+01  1.809629059E+02
1.013783357E+01  1.772407532E+02
1.015257436E+01  1.739391785E+02
1.016731516E+01  1.713127289E+02
1.018205595E+01  1.678146667E+02
1.019679674E+01  1.645417786E+02
1.021153753E+01  1.635974884E+02
1.022627832E+01  1.654966278E+02
1.024101912E+01  1.678446808E+02
1.025575991E+01  1.695938263E+02
1.027050070E+01  1.689857483E+02
1.028524149E+01  1.677895966E+02
1.029998229E+01  1.661753387E+02
1.031472308E+01  1.651760406E+02
1.032946387E+01  1.634681702E+02
1.034420466E+01  1.617711487E+02
1.035894545E+01  1.599678955E+02
1.037368625E+01  1.588824463E+02
1.038842704E+01  1.582478180E+02
1.040316783E+01  1.578629913E+02
1.041790862E+01  1.574617157E+02
1.043264941E+01  1.567914276E+02
1.044739021E+01  1.563821106E+02
1.046213100E+01  1.553493805E+02
1.047687179E+01  1.542879181E+02
1.049161258E+01  1.536436920E+02
1.050635337E+01  1.535543060E+02
1.052109417E+01  1.535819092E+02
1.053583496E+01  1.533497925E+02
1.055057575E+01  1.530792236E+02
1.056531654E+01  1.527458344E+02
1.058005734E+01  1.521698608E+02
1.059479813E+01  1.518616943E+02
1.060953892E+01  1.519396057E+02
1.062427971E+01  1.520267639E+02
1.063902050E+01  1.529204102E+02
1.065376130E+01  1.520452881E+02
1.066850209E+01  1.517791290E+02
1.068324288E+01  1.510345001E+02
1.069798367E+01  1.510349274E+02
1.071272446E+01  1.514080658E+02
1.072746526E+01  1.510063171E+02
1.074220605E+01  1.512861023E+02
1.075694684E+01  1.512738800E+02
1.077168763E+01  1.518546906E+02
1.078642843E+01  1.522010498E+02
1.080116922E+01  1.518397675E+02
1.081591001E+01  1.517030334E+02
1.083065080E+01  1.511057129E+02
1.084539159E+01  1.508893738E+02
1.086013239E+01  1.510814056E+02
1.087487318E+01  1.513412476E+02
1.088961397E+01  1.519927368E+02
1.090435476E+01  1.523403778E+02
1.091909555E+01  1.527383118E+02
1.093383635E+01  1.527353821E+02
1.094857714E+01  1.531508331E+02
1.096331793E+01  1.531971741E+02
1.097805872E+01  1.537718658E+02
1.099279951E+01  1.539207611E+02
1.100754031E+01  1.541079254E+02
1.102228110E+01  1.541924896E+02
1.103702189E+01  1.550412445E+02
1.105176268E+01  1.551856232E+02
1.106650348E+01  1.557862244E+02
1.108124427E+01  1.554269867E+02
1.109598506E+01  1.553276978E+02
1.111072585E+01  1.551752014E+02
1.112546664E+01  1.554323730E+02
1.114020744E+01  1.555508575E+02
1.115494823E+01  1.552506866E+02
1.116968902E+01  1.552790833E+02
1.118442981E+01  1.554970398E+02
1.119917060E+01  1.555134735E+02
1.121391140E+01  1.552611694E+02
1.122865219E+01  1.550426636E+02
1.124339298E+01  1.548750763E+02
1.125813377E+01  1.547405548E+02
1.127287456E+01  1.543152924E+02
1.128761536E+01  1.541021118E+02
1.130235615E+01  1.538877258E+02
1.131709694E+01  1.539372101E+02
1.133183773E+01  1.540606537E+02
1.134657853E+01  1.539465485E+02
1.136131932E+01  1.536519318E+02
1.137606011E+01  1.536629944E+02
1.139080090E+01  1.539984894E+02
1.140554169E+01  1.546244202E+02
1.142028249E+01  1.548715210E+02
1.143502328E+01  1.555207367E+02
1.144976407E+01  1.553023071E+02
1.146450486E+01  1.552524872E+02
1.147924565E+01  1.555148468E+02
1.149398645E+01  1.559403381E+02
1.150872724E+01  1.562560272E+02
1.152346803E+01  1.566893768E+02
1.153820882E+01  1.580334473E+02
1.155294961E+01  1.594876709E+02
1.156769041E+01  1.610985565E+02
1.158243120E+01  1.626681824E+02
1.159717199E+01  1.644588470E+02
1.161191278E+01  1.673765564E+02
1.162665358E+01  1.703772278E+02
1.164139437E+01  1.743022766E+02
1.165613516E+01  1.790822601E+02
1.167087595E+01  1.837451477E+02
1.168561674E+01  1.876087189E+02
1.170035754E+01  1.908045044E+02
1.171509833E+01  1.928613281E+02
1.172983912E+01  1.933790588E+02
1.174457991E+01  1.921045837E+02
1.175932070E+01  1.883238983E+02
1.177406150E+01  1.829588470E+02
1.178880229E+01  1.775356140E+02
1.180354308E+01  1.724096832E+02
1.181828387E+01  1.680307617E+02
1.183302467E+01  1.656768646E+02
1.184776546E+01  1.637075958E+02
1.186250625E+01  1.625311584E+02
1.187724704E+01  1.617927094E+02
1.189198783E+01  1.613459320E+02
1.190672863E+01  1.613491211E+02
1.192146942E+01  1.611144562E+02
1.193621021E+01  1.613227997E+02
1.195095100E+01  1.615597839E+02
1.196569179E+01  1.620087585E+02
1.198043259E+01  1.623662262E+02
1.199517338E+01  1.622616425E+02
1.200991417E+01  1.624116821E+02
1.202465496E+01  1.625357208E+02
1.203939575E+01  1.630788574E+02
1.205413655E+01  1.630504913E+02
1.206887734E+01  1.623019562E+02
1.208361813E+01  1.618481140E+02
1.209835892E+01  1.618799744E+02
1.211309972E+01  1.626835022E+02
1.212784051E+01  1.631492767E+02
1.214258130E+01  1.641098785E+02
1.215732209E+01  1.650570679E+02
1.217206288E+01  1.653930969E+02
1.218680368E+01  1.652077332E+02
1.220154447E+01  1.650017853E+02
1.221628526E+01  1.654304810E+02
1.223102605E+01  1.659042511E+02
1.224576684E+01  1.664879761E+02
1.226050764E+01  1.666655579E+02
1.227524843E+01  1.672747650E+02
1.228998922E+01  1.676506805E+02
1.230473001E+01  1.681902161E+02
1.231947080E+01  1.685302429E+02
1.233421160E+01  1.690753479E+02
1.234895239E+01  1.694015045E+02
1.236369318E+01  1.698713531E+02
1.237843397E+01  1.703824310E+02
1.239317477E+01  1.712784576E+02
1.240791556E+01  1.719525909E+02
1.242265635E+01  1.726181183E+02
1.243739714E+01  1.729732056E+02
1.245213793E+01  1.733572998E+02
1.246687873E+01  1.737988586E+02
1.248161952E+01  1.743883972E+02
1.249636031E+01  1.754967499E+02
1.251110110E+01  1.762828064E+02
1.252584189E+01  1.769398193E+02
1.254058269E+01  1.776235352E+02
1.255532348E+01  1.783021851E+02
1.257006427E+01  1.789676514E+02
1.258480506E+01  1.790828400E+02
1.259954585E+01  1.795765076E+02
1.261428665E+01  1.795758514E+02
1.262902744E+01  1.795255890E+02
1.264376823E+01  1.792227783E+02
1.265850902E+01  1.791559296E+02
1.267324982E+01  1.794432678E+02
1.268799061E+01  1.795205536E+02
1.270273140E+01  1.794119873E+02
1.271747219E+01  1.795030518E+02
1.273221298E+01  1.800516052E+02
1.274695378E+01  1.795737457E+02
1.276169457E+01  1.788916016E+02
1.277643536E+01  1.781168671E+02
1.279117615E+01  1.782417145E+02
1.280591694E+01  1.786675720E+02
1.282065774E+01  1.786472931E+02
1.283539853E+01  1.776322327E+02
1.285013932E+01  1.772794495E+02
1.286488011E+01  1.778318939E+02
1.287962091E+01  1.786373749E+02
1.289436170E+01  1.785694427E+02
1.290910249E+01  1.784656830E+02
1.292384328E+01  1.782434998E+02
1.293858407E+01  1.779548492E+02
1.295332487E+01  1.775387726E+02
1.296806566E+01  1.776065979E+02
1.298280645E+01  1.777034912E+02
1.299754724E+01  1.778475494E+02
1.301228803E+01  1.781708527E+02
1.302702883E+01  1.789637909E+02
1.304176962E+01  1.794413300E+02
1.305651041E+01  1.804262695E+02
1.307125120E+01  1.808866119E+02
1.308599199E+01  1.819920197E+02
1.310073279E+01  1.829508820E+02
1.311547358E+01  1.841555328E+02
1.313021437E+01  1.852779083E+02
1.314495516E+01  1.877353973E+02
1.315969596E+01  1.905534058E+02
1.317443675E+01  1.944030151E+02
1.318917754E+01  1.981905212E+02
1.320391833E+01  2.030431976E+02
1.321865912E+01  2.080481567E+02
1.323339992E+01  2.122697601E+02
1.324814071E+01  2.156152649E+02
1.326288150E+01  2.180803833E+02
1.327762229E+01  2.195215607E+02
1.329236308E+01  2.195436401E+02
1.330710388E+01  2.175891876E+02
1.332184467E+01  2.136403351E+02
1.333658546E+01  2.087652740E+02
1.335132625E+01  2.034756470E+02
1.336606704E+01  1.988593445E+02
1.338080784E+01  1.937902222E+02
1.339554863E+01  1.897513428E+02
1.341028942E+01  1.856278839E+02
1.342503021E+01  1.827837982E+02
1.343977101E+01  1.806318817E+02
1.345451180E+01  1.799707794E+02
1.346925259E+01  1.796605682E+02
1.348399338E+01  1.794146423E+02
1.349873417E+01  1.784808350E+02
1.351347497E+01  1.776215668E+02
1.352821576E+01  1.769097900E+02
1.354295655E+01  1.776908722E+02
1.355769734E+01  1.788660278E+02
1.357243813E+01  1.797944641E+02
1.358717893E+01  1.807644196E+02
1.360191972E+01  1.820350342E+02
1.361666051E+01  1.835479584E+02
1.363140130E+01  1.847575989E+02
1.364614209E+01  1.858940887E+02
1.366088289E+01  1.871632538E+02
1.367562368E+01  1.877392731E+02
1.369036447E+01  1.868071594E+02
1.370510526E+01  1.853076935E+02
1.371984606E+01  1.833879700E+02
1.373458685E+01  1.820079193E+02
1.374932764E+01  1.809322205E+02
1.376406843E+01  1.800951691E+02
1.377880922E+01  1.792597809E+02
1.379355002E+01  1.785014954E+02
1.380829081E+01  1.777469635E+02
1.382303160E+01  1.775298615E+02
1.383777239E+01  1.773300018E+02
1.385251318E+01  1.769154358E+02
1.386725398E+01  1.766026917E+02
1.388199477E+01  1.765034790E+02
1.389673556E+01  1.766892700E+02
1.391147635E+01  1.765395966E+02
1.392621715E+01  1.769282227E+02
1.394095794E+01  1.774419556E+02
1.395569873E+01  1.778503265E+02
1.397043952E+01  1.784404449E+02
1.398518031E+01  1.792669373E+02
1.399992111E+01  1.808420715E+02
1.401466190E+01  1.821989441E+02
1.402940269E+01  1.828593292E+02
1.404414348E+01  1.830849304E+02
1.405888427E+01  1.841464386E+02
1.407362507E+01  1.854381104E+02
1.408836586E+01  1.877897797E+02
1.410310665E+01  1.893885040E+02
1.411784744E+01  1.916761169E+02
1.413258823E+01  1.944873352E+02
1.414732903E+01  1.979567261E+02
1.416206982E+01  2.017449341E+02
1.417681061E+01  2.053212738E+02
1.419155140E+01  2.094757538E+02
1.420629220E+01  2.152032776E+02
1.422103299E+01  2.194447784E+02
1.423577378E+01  2.208046570E+02
1.425051457E+01  2.180291595E+02
1.426525536E+01  2.128057098E+02
1.427999616E+01  2.067619476E+02
1.429473695E+01  2.007981567E+02
1.430947774E+01  1.962206421E+02
1.432421853E+01  1.937766724E+02
1.433895932E+01  1.911792755E+02
1.435370012E+01  1.886170502E+02
1.436844091E+01  1.858314362E+02
1.438318170E+01  1.834329529E+02
1.439792249E+01  1.813285828E+02
1.441266328E+01  1.792801666E+02
1.442740408E+01  1.778153381E+02
1.444214487E+01  1.765855560E+02
1.445688566E+01  1.758692780E+02
1.447162645E+01  1.753495789E+02
1.448636725E+01  1.744040527E+02
1.450110804E+01  1.734373627E+02
1.451584883E+01  1.728838654E+02
1.453058962E+01  1.727623901E+02
1.454533041E+01  1.727969055E+02
1.456007121E+01  1.728351288E+02
1.457481200E+01  1.730352478E+02
1.458955279E+01  1.732251892E+02
1.460429358E+01  1.731545868E+02
1.461903437E+01  1.735336761E+02
1.463377517E+01  1.740799103E+02
1.464851596E+01  1.744887085E+02
1.466325675E+01  1.751253357E+02
1.467799754E+01  1.757206421E+02
1.469273833E+01  1.769391785E+02
1.470747913E+01  1.771661530E+02
1.472221992E+01  1.772406616E+02
1.473696071E+01  1.772343903E+02
1.475170150E+01  1.775021210E+02
1.476644230E+01  1.778359985E+02
1.478118309E+01  1.777121735E+02
1.479592388E+01  1.768283997E+02
1.481066467E+01  1.759658966E+02
1.482540546E+01  1.751957703E+02
1.484014626E+01  1.745395355E+02
1.485488705E+01  1.734492798E+02
1.486962784E+01  1.724800415E+02
1.488436863E+01  1.719368439E+02
1.489910942E+01  1.717762451E+02
1.491385022E+01  1.716338654E+02
1.492859101E+01  1.711326599E+02
1.494333180E+01  1.707648468E+02
1.495807259E+01  1.706136322E+02
1.497281339E+01  1.710601654E+02
1.498755418E+01  1.714232635E+02
1.500229497E+01  1.716052399E+02
1.501703576E+01  1.712679901E+02
1.503177655E+01  1.715006866E+02
1.504651735E+01  1.717653198E+02
1.506125814E+01  1.720578308E+02
1.507599893E+01  1.716598053E+02
1.509073972E+01  1.719148865E+02
1.510548051E+01  1.729340668E+02
1.512022131E+01  1.732589417E+02
1.513496210E+01  1.732371979E+02
1.514970289E+01  1.731771851E+02
1.516444368E+01  1.730442505E+02
1.517918447E+01  1.729014893E+02
1.519392527E+01  1.723615417E+02
1.520866606E+01  1.713736115E+02
1.522340685E+01  1.706145935E+02
1.523814764E+01  1.707459564E+02
1.525288844E+01  1.705895538E+02
1.526762923E+01  1.701141968E+02
1.528237002E+01  1.694425659E+02
1.529711081E+01  1.691547394E+02
1.531185160E+01  1.690362854E+02
1.532659240E+01  1.687357483E+02
1.534133319E+01  1.685498352E+02
1.535607398E+01  1.682828979E+02
1.537081477E+01  1.684066772E+02
1.538555556E+01  1.684717712E+02
1.540029636E+01  1.685473938E+02
1.541503715E+01  1.679705658E+02
1.542977794E+01  1.680731354E+02
1.544451873E+01  1.678471222E+02
1.545925952E+01  1.680351715E+02
1.547400032E+01  1.682658691E+02
1.548874111E+01  1.680729065E+02
1.550348190E+01  1.680711670E+02
1.551822269E+01  1.679519501E+02
1.553296349E+01  1.685472107E+02
1.554770428E+01  1.686398315E+02
1.556244507E+01  1.683327637E+02
1.557718586E+01  1.681279449E+02
1.559192665E+01  1.684546204E+02
1.560666745E+01  1.687388153E+02
1.562140824E+01  1.692871399E+02
1.563614903E+01  1.695510254E+02
1.565088982E+01  1.695025635E+02
1.566563061E+01  1.690533600E+02
1.568037141E+01  1.683869171E+02
1.569511220E+01  1.682116699E+02
1.570985299E+01  1.677832489E+02
1.572459378E+01  1.680191345E+02
1.573933457E+01  1.681341095E+02
1.575407537E+01  1.684438019E+02
1.576881616E+01  1.683244019E+02
1.578355695E+01  1.686891785E+02
1.579829774E+01  1.689697571E+02
1.581303854E+01  1.688150635E+02
1.582777933E+01  1.687350616E+02
1.584252012E+01  1.688063660E+02
1.585726091E+01  1.686542816E+02
1.587200170E+01  1.684731598E+02
1.588674250E+01  1.687557831E+02
1.590148329E+01  1.693703461E+02
1.591622408E+01  1.687601013E+02
1.593096487E+01  1.684175262E+02
1.594570566E+01  1.684490356E+02
1.596044646E+01  1.690711365E+02
1.597518725E+01  1.688249512E+02
1.598992804E+01  1.687736206E+02
1.600466883E+01  1.685642700E+02
1.601940963E+01  1.693234253E+02
1.603415042E+01  1.697209167E+02
1.604889121E+01  1.701824188E+02
1.606363200E+01  1.704314423E+02
1.607837279E+01  1.705999908E+02
1.609311359E+01  1.702995453E+02
1.610785438E+01  1.698138428E+02
1.612259517E+01  1.696260986E+02
1.613733596E+01  1.700837860E+02
1.615207675E+01  1.708040619E+02
1.616681755E+01  1.704537354E+02
1.618155834E+01  1.704384155E+02
1.619629913E+01  1.703656464E+02
1.621103992E+01  1.705818024E+02
1.622578071E+01  1.707254181E+02
1.624052151E+01  1.710142059E+02
1.625526230E+01  1.714867401E+02
1.627000309E+01  1.717700653E+02
1.628474388E+01  1.716241302E+02
1.629948468E+01  1.718294067E+02
1.631422547E+01  1.711826172E+02
1.632896626E+01  1.714569550E+02
1.634370705E+01  1.717457581E+02
1.635844784E+01  1.721594696E+02
1.637318864E+01  1.721833038E+02
1.638792943E+01  1.728807068E+02
1.640267022E+01  1.740404205E+02
1.641741101E+01  1.755222015E+02
1.643215180E+01  1.770765839E+02
1.644689260E+01  1.776779327E+02
1.646163339E+01  1.774607544E+02
1.647637418E+01  1.776816864E+02
1.649111497E+01  1.786408844E+02
1.650585576E+01  1.791551056E+02
1.652059656E+01  1.799621124E+02
1.653533735E+01  1.807547760E+02
1.655007814E+01  1.813359070E+02
1.656481893E+01  1.807774506E+02
1.657955973E+01  1.795307312E+02
1.659430052E+01  1.784771881E+02
1.660904131E+01  1.769593201E+02
1.662378210E+01  1.755934906E+02
1.663852289E+01  1.744860382E+02
1.665326369E+01  1.733651276E+02
1.666800448E+01  1.733173523E+02
1.668274527E+01  1.731501617E+02
1.669748606E+01  1.729217072E+02
1.671222685E+01  1.726283722E+02
1.672696765E+01  1.723129425E+02
1.674170844E+01  1.723526154E+02
1.675644923E+01  1.723145142E+02
1.677119002E+01  1.721675568E+02
1.678593081E+01  1.723470154E+02
1.680067161E+01  1.726065369E+02
1.681541240E+01  1.729889984E+02
1.683015319E+01  1.726226501E+02
1.684489398E+01  1.716214752E+02
1.685963478E+01  1.711755829E+02
1.687437557E+01  1.713089142E+02
1.688911636E+01  1.721691132E+02
1.690385715E+01  1.725424042E+02
1.691859794E+01  1.724622803E+02
1.693333874E+01  1.726259460E+02
1.694807953E+01  1.726269531E+02
1.696282032E+01  1.728444214E+02
1.697756111E+01  1.732005005E+02
1.699230190E+01  1.734995575E+02
1.700704270E+01  1.741623230E+02
1.702178349E+01  1.740556030E+02
1.703652428E+01  1.747273865E+02
1.705126507E+01  1.749154358E+02
1.706600587E+01  1.756472321E+02
1.708074666E+01  1.752840729E+02
1.709548745E+01  1.757412109E+02
1.711022824E+01  1.763321075E+02
1.712496903E+01  1.770586548E+02
1.713970983E+01  1.780384979E+02
1.715445062E+01  1.788934631E+02
1.716919141E+01  1.797602539E+02
1.718393220E+01  1.801724548E+02
1.719867299E+01  1.809796295E+02
1.721341379E+01  1.810207214E+02
1.722815458E+01  1.806315308E+02
1.724289537E+01  1.796864471E+02
1.725763616E+01  1.795036163E+02
1.727237695E+01  1.790571136E+02
1.728711775E+01  1.792595215E+02
1.730185854E+01  1.793185883E+02
1.731659933E+01  1.796762390E+02
1.733134012E+01  1.792200775E+02
1.734608092E+01  1.795216675E+02
1.736082171E+01  1.805891876E+02
1.737556250E+01  1.820511932E+02
1.739030329E+01  1.829149323E+02
1.740504408E+01  1.836854706E+02
1.741978488E+01  1.842201233E+02
1.743452567E+01  1.837007751E+02
1.744926646E+01  1.829407043E+02
1.746400725E+01  1.824156189E+02
1.747874804E+01  1.820959167E+02
1.749348884E+01  1.815034790E+02
1.750822963E+01  1.802407227E+02
1.752297042E+01  1.788335724E+02
1.753771121E+01  1.774787292E+02
1.755245200E+01  1.767408600E+02
1.756719280E+01  1.762124176E+02
1.758193359E+01  1.762440338E+02
1.759667438E+01  1.762490387E+02
1.761141517E+01  1.760836945E+02
1.762615597E+01  1.758325195E+02
1.764089676E+01  1.754149933E+02
1.765563755E+01  1.748978882E+02
1.767037834E+01  1.749835510E+02
1.768511913E+01  1.752090454E+02
1.769985993E+01  1.748296356E+02
1.771460072E+01  1.746164856E+02
1.772934151E+01  1.745839844E+02
1.774408230E+01  1.747606354E+02
1.775882309E+01  1.750624390E+02
1.777356389E+01  1.748637238E+02
1.778830468E+01  1.740651703E+02
1.780304547E+01  1.739600830E+02
1.781778626E+01  1.740294495E+02
1.783252705E+01  1.744698944E+02
1.784726785E+01  1.747730560E+02
1.786200864E+01  1.752741699E+02
1.787674943E+01  1.755813293E+02
1.789149022E+01  1.756055603E+02
1.790623102E+01  1.756727142E+02
1.792097181E+01  1.754571991E+02
1.793571260E+01  1.751325836E+02
1.795045339E+01  1.745318909E+02
1.796519418E+01  1.740788727E+02
1.797993498E+01  1.738897095E+02
1.799467577E+01  1.745426788E+02
1.800941656E+01  1.741698761E+02
1.802415735E+01  1.740543823E+02
1.803889814E+01  1.740048065E+02
1.805363894E+01  1.744876099E+02
1.806837973E+01  1.744302521E+02
1.808312052E+01  1.739756470E+02
1.809786131E+01  1.738275604E+02
1.811260211E+01  1.734054718E+02
1.812734290E+01  1.736595001E+02
1.814208369E+01  1.736955872E+02
1.815682448E+01  1.735322723E+02
1.817156527E+01  1.732180481E+02
1.818630607E+01  1.732756195E+02
1.820104686E+01  1.730352020E+02
1.821578765E+01  1.725498352E+02
1.823052844E+01  1.718862152E+02
1.824526923E+01  1.721847382E+02
1.826001003E+01  1.726101379E+02
1.827475082E+01  1.724237366E+02
1.828949161E+01  1.712682037E+02
1.830423240E+01  1.702103424E+02
1.831897319E+01  1.702980499E+02
1.833371399E+01  1.708457642E+02
1.834845478E+01  1.715446930E+02
1.836319557E+01  1.714525909E+02
1.837793636E+01  1.715775299E+02
1.839267716E+01  1.715722809E+02
1.840741795E+01  1.712024384E+02
1.842215874E+01  1.713590393E+02
1.843689953E+01  1.716222839E+02
1.845164032E+01  1.722102661E+02
1.846638112E+01  1.719837036E+02
1.848112191E+01  1.712718811E+02
1.849586270E+01  1.710528870E+02
1.851060349E+01  1.711852722E+02
1.852534428E+01  1.711645660E+02
1.854008508E+01  1.708481598E+02
1.855482587E+01  1.709807739E+02
1.856956666E+01  1.706877136E+02
1.858430745E+01  1.706822510E+02
1.859904824E+01  1.708810577E+02
1.861378904E+01  1.712748718E+02
1.862852983E+01  1.715869598E+02
1.864327062E+01  1.711921844E+02
1.865801141E+01  1.708659668E+02
1.867275221E+01  1.704503326E+02
1.868749300E+01  1.707702789E+02
1.870223379E+01  1.708659515E+02
1.871697458E+01  1.703893738E+02
1.873171537E+01  1.699942932E+02
1.874645617E+01  1.698500061E+02
1.876119696E+01  1.699826965E+02
1.877593775E+01  1.701994171E+02
1.879067854E+01  1.702510986E+02
1.880541933E+01  1.705688934E+02
1.882016013E+01  1.705423126E+02
1.883490092E+01  1.701571655E+02
1.884964171E+01  1.707226257E+02
1.886438250E+01  1.708893890E+02
1.887912329E+01  1.706057434E+02
1.889386409E+01  1.697536469E+02
1.890860488E+01  1.696977081E+02
1.892334567E+01  1.700345306E+02
1.893808646E+01  1.698035431E+02
1.895282726E+01  1.697476196E+02
1.896756805E+01  1.700750580E+02
1.898230884E+01  1.710865936E+02
1.899704963E+01  1.713160400E+02
1.901179042E+01  1.714098816E+02
1.902653122E+01  1.707112732E+02
1.904127201E+01  1.701617126E+02
1.905601280E+01  1.704677582E+02
1.907075359E+01  1.712813110E+02
1.908549438E+01  1.714846191E+02
1.910023518E+01  1.713875580E+02
1.911497597E+01  1.712429810E+02
1.912971676E+01  1.717937012E+02
1.914445755E+01  1.722441864E+02
1.915919834E+01  1.722203522E+02
1.917393914E+01  1.719806519E+02
1.918867993E+01  1.718962402E+02
1.920342072E+01  1.712870178E+02
1.921816151E+01  1.702306976E+02
1.923290231E+01  1.698394775E+02
1.924764310E+01  1.695595245E+02
1.926238389E+01  1.697326355E+02
1.927712468E+01  1.690635223E+02
1.929186547E+01  1.690487213E+02
1.930660627E+01  1.698813782E+02
1.932134706E+01  1.713041077E+02
1.933608785E+01  1.715706635E+02
1.935082864E+01  1.710716858E+02
1.936556943E+01  1.704457855E+02
1.938031023E+01  1.704162903E+02
1.939505102E+01  1.709743347E+02
1.940979181E+01  1.712437897E+02
1.942453260E+01  1.716032257E+02
1.943927340E+01  1.717395172E+02
1.945401419E+01  1.715939484E+02
1.946875498E+01  1.723072815E+02
1.948349577E+01  1.731884766E+02
1.949823656E+01  1.730822296E+02
1.951297736E+01  1.725127258E+02
1.952771815E+01  1.728392639E+02
1.954245894E+01  1.744991302E+02
1.955719973E+01  1.751764679E+02
1.957194052E+01  1.748047333E+02
1.958668132E+01  1.745806732E+02
1.960142211E+01  1.743628998E+02
1.961616290E+01  1.740360565E+02
1.963090369E+01  1.739168701E+02
1.964564448E+01  1.741325378E+02
1.966038528E+01  1.744536133E+02
1.967512607E+01  1.741763458E+02
1.968986686E+01  1.738502808E+02
1.970460765E+01  1.737726288E+02
1.971934845E+01  1.739789124E+02
1.973408924E+01  1.739161377E+02
1.974883003E+01  1.728226929E+02
1.976357082E+01  1.717203217E+02
1.977831161E+01  1.707008820E+02
1.979305241E+01  1.701803894E+02
1.980779320E+01  1.699534607E+02
1.982253399E+01  1.704701996E+02
1.983727478E+01  1.710676270E+02
1.985201557E+01  1.708020477E+02
1.986675637E+01  1.714328613E+02
1.988149716E+01  1.713543549E+02
1.989623795E+01  1.712448578E+02
1.991097874E+01  1.708327942E+02
1.992571953E+01  1.712760315E+02
1.994046033E+01  1.711035004E+02
1.995520112E+01  1.711377869E+02
1.996994191E+01  1.713279724E+02
1.998468270E+01  1.719112091E+02
1.999942350E+01  1.719192810E+02
2.001416429E+01  1.722496033E+02
2.002890508E+01  1.727884521E+02
2.004364587E+01  1.730002899E+02
2.005838666E+01  1.728762970E+02
2.007312746E+01  1.731347656E+02
2.008786825E+01  1.737127228E+02
2.010260904E+01  1.751258850E+02
2.011734983E+01  1.758643646E+02
2.013209062E+01  1.763222351E+02
2.014683142E+01  1.767745514E+02
2.016157221E+01  1.773597870E+02
2.017631300E+01  1.778230591E+02
2.019105379E+01  1.787424469E+02
2.020579458E+01  1.803746948E+02
2.022053538E+01  1.819353638E+02
2.023527617E+01  1.837835846E+02
2.025001696E+01  1.854759979E+02
2.026475775E+01  1.880108185E+02
2.027949855E+01  1.897679138E+02
2.029423934E+01  1.904851074E+02
2.030898013E+01  1.903004608E+02
2.032372092E+01  1.903022919E+02
2.033846171E+01  1.904207764E+02
2.035320251E+01  1.894821472E+02
2.036794330E+01  1.876250763E+02
2.038268409E+01  1.855925751E+02
2.039742488E+01  1.840059357E+02
2.041216567E+01  1.820534363E+02
2.042690647E+01  1.802805634E+02
2.044164726E+01  1.778547821E+02
2.045638805E+01  1.756407776E+02
2.047112884E+01  1.738595276E+02
2.048586964E+01  1.731819153E+02
2.050061043E+01  1.721761017E+02
2.051535122E+01  1.711926575E+02
2.053009201E+01  1.703784943E+02
2.054483280E+01  1.703190460E+02
2.055957360E+01  1.704547729E+02
2.057431439E+01  1.705775604E+02
2.058905518E+01  1.708789520E+02
2.060379597E+01  1.711920776E+02
2.061853676E+01  1.711638947E+02
2.063327756E+01  1.710546265E+02
2.064801835E+01  1.713998718E+02
2.066275914E+01  1.717186127E+02
2.067749993E+01  1.720463257E+02
2.069224072E+01  1.718379211E+02
2.070698152E+01  1.714716187E+02
2.072172231E+01  1.713115387E+02
2.073646310E+01  1.712081451E+02
2.075120389E+01  1.718855591E+02
2.076594469E+01  1.723666534E+02
2.078068548E+01  1.727645721E+02
2.079542627E+01  1.724992523E+02
2.081016706E+01  1.720491943E+02
2.082490785E+01  1.720254364E+02
2.083964865E+01  1.727443542E+02
2.085438944E+01  1.730424957E+02
2.086913023E+01  1.736510925E+02
2.088387102E+01  1.734150543E+02
2.089861181E+01  1.733982391E+02
2.091335261E+01  1.731356354E+02
2.092809340E+01  1.729240570E+02
2.094283419E+01  1.731162109E+02
2.095757498E+01  1.738593750E+02
2.097231577E+01  1.740001831E+02
2.098705657E+01  1.738622284E+02
2.100179736E+01  1.735682831E+02
2.101653815E+01  1.729417877E+02
2.103127894E+01  1.721984406E+02
2.104601974E+01  1.718142090E+02
2.106076053E+01  1.722180481E+02
2.107550132E+01  1.719683380E+02
2.109024211E+01  1.725938721E+02
2.110498290E+01  1.728973389E+02
2.111972370E+01  1.721983948E+02
2.113446449E+01  1.716453400E+02
2.114920528E+01  1.715040894E+02
2.116394607E+01  1.726466675E+02
2.117868686E+01  1.726947937E+02
2.119342766E+01  1.726965637E+02
2.120816845E+01  1.723649597E+02
2.122290924E+01  1.724368439E+02
2.123765003E+01  1.722647552E+02
2.125239082E+01  1.725977478E+02
2.126713162E+01  1.733831482E+02
2.128187241E+01  1.737356415E+02
2.129661320E+01  1.732743225E+02
2.131135399E+01  1.722577209E+02
2.132609479E+01  1.720187988E+02
2.134083558E+01  1.721839142E+02
2.135557637E+01  1.727046661E+02
2.137031716E+01  1.733503876E+02
2.138505795E+01  1.734897003E+02
2.139979875E+01  1.733120117E+02
2.141453954E+01  1.738617706E+02
2.142928033E+01  1.743070984E+02
2.144402112E+01  1.741478882E+02
2.145876191E+01  1.736743622E+02
2.147350271E+01  1.741369629E+02
2.148824350E+01  1.748540649E+02
2.150298429E+01  1.756282349E+02
2.151772508E+01  1.758451233E+02
2.153246588E+01  1.760098114E+02
2.154720667E+01  1.759856262E+02
2.156194746E+01  1.756682587E+02
2.157668825E+01  1.759326782E+02
2.159142904E+01  1.755530548E+02
2.160616984E+01  1.753309784E+02
2.162091063E+01  1.758316498E+02
2.163565142E+01  1.762570343E+02
2.165039221E+01  1.768343658E+02
2.166513300E+01  1.768864746E+02
2.167987380E+01  1.769846954E+02
2.169461459E+01  1.769520416E+02
2.170935538E+01  1.774761200E+02
2.172409617E+01  1.783670654E+02
2.173883696E+01  1.785856171E+02
2.175357776E+01  1.786525421E+02
2.176831855E+01  1.792595215E+02
2.178305934E+01  1.793498383E+02
2.179780013E+01  1.801482086E+02
2.181254093E+01  1.811040649E+02
2.182728172E+01  1.822240753E+02
2.184202251E+01  1.830469055E+02
2.185676330E+01  1.836570435E+02
2.187150409E+01  1.828762665E+02
2.188624489E+01  1.825683594E+02
2.190098568E+01  1.824119873E+02
2.191572647E+01  1.821342926E+02
2.193046726E+01  1.812070160E+02
2.194520805E+01  1.801203918E+02
2.195994885E+01  1.790487366E+02
2.197468964E+01  1.785586243E+02
2.198943043E+01  1.777530518E+02
2.200417122E+01  1.772985229E+02
2.201891201E+01  1.772058411E+02
2.203365281E+01  1.768867188E+02
2.204839360E+01  1.769826965E+02
2.206313439E+01  1.769644470E+02
2.207787518E+01  1.770780487E+02
2.209261598E+01  1.765861206E+02
2.210735677E+01  1.762786255E+02
2.212209756E+01  1.757835236E+02
2.213683835E+01  1.748915100E+02
2.215157914E+01  1.746863556E+02
2.216631994E+01  1.747684021E+02
2.218106073E+01  1.752064667E+02
2.219580152E+01  1.755204010E+02
2.221054231E+01  1.762066498E+02
2.222528310E+01  1.772900848E+02
2.224002390E+01  1.774392242E+02
2.225476469E+01  1.778660736E+02
2.226950548E+01  1.792093811E+02
2.228424627E+01  1.795839386E+02
2.229898706E+01  1.800910950E+02
2.231372786E+01  1.807363739E+02
2.232846865E+01  1.817434998E+02
2.234320944E+01  1.821089478E+02
2.235795023E+01  1.818877106E+02
2.237269103E+01  1.821263885E+02
2.238743182E+01  1.823137817E+02
2.240217261E+01  1.829240265E+02
2.241691340E+01  1.834292450E+02
2.243165419E+01  1.848363190E+02
2.244639499E+01  1.859716034E+02
2.246113578E+01  1.870552673E+02
2.247587657E+01  1.878572083E+02
2.249061736E+01  1.886075897E+02
2.250535815E+01  1.891195984E+02
2.252009895E+01  1.897098236E+02
2.253483974E+01  1.904703217E+02
2.254958053E+01  1.907719727E+02
2.256432132E+01  1.905002441E+02
2.257906212E+01  1.900779266E+02
2.259380291E+01  1.903309174E+02
2.260854370E+01  1.899852600E+02
2.262328449E+01  1.897604065E+02
2.263802528E+01  1.885983887E+02
2.265276608E+01  1.879769745E+02
2.266750687E+01  1.860673370E+02
2.268224766E+01  1.855956268E+02
2.269698845E+01  1.850192261E+02
2.271172924E+01  1.845681915E+02
2.272647004E+01  1.841078033E+02
2.274121083E+01  1.828642578E+02
2.275595162E+01  1.816464844E+02
2.277069241E+01  1.810527344E+02
2.278543320E+01  1.806616821E+02
2.280017400E+01  1.800904541E+02
2.281491479E+01  1.798781586E+02
2.282965558E+01  1.797282257E+02
2.284439637E+01  1.790442505E+02
2.285913717E+01  1.781806946E+02
2.287387796E+01  1.775485229E+02
2.288861875E+01  1.773010406E+02
2.290335954E+01  1.774809723E+02
2.291810033E+01  1.780546112E+02
2.293284113E+01  1.779088135E+02
2.294758192E+01  1.774602509E+02
2.296232271E+01  1.771886444E+02
2.297706350E+01  1.777676544E+02
2.299180429E+01  1.782964783E+02
2.300654509E+01  1.785106812E+02
2.302128588E+01  1.780213318E+02
2.303602667E+01  1.785543671E+02
2.305076746E+01  1.791121979E+02
2.306550825E+01  1.793866425E+02
2.308024905E+01  1.787503815E+02
2.309498984E+01  1.781825104E+02
2.310973063E+01  1.777676392E+02
2.312447142E+01  1.777930450E+02
2.313921222E+01  1.778367615E+02
2.315395301E+01  1.778380737E+02
2.316869380E+01  1.779464874E+02
2.318343459E+01  1.784247589E+02
2.319817538E+01  1.783049011E+02
2.321291618E+01  1.780984650E+02
2.322765697E+01  1.780705414E+02
2.324239776E+01  1.773657990E+02
2.325713855E+01  1.769785309E+02
2.327187934E+01  1.766442413E+02
2.328662014E+01  1.765014801E+02
2.330136093E+01  1.764856262E+02
2.331610172E+01  1.764973602E+02
2.333084251E+01  1.765794678E+02
2.334558330E+01  1.764884338E+02
2.336032410E+01  1.764885559E+02
2.337506489E+01  1.767196808E+02
2.338980568E+01  1.762133942E+02
2.340454647E+01  1.766708374E+02
2.341928727E+01  1.765818787E+02
2.343402806E+01  1.769096680E+02
2.344876885E+01  1.775397644E+02
2.346350964E+01  1.784794312E+02
2.347825043E+01  1.790186005E+02
2.349299123E+01  1.792558289E+02
2.350773202E+01  1.792002563E+02
2.352247281E+01  1.789190063E+02
2.353721360E+01  1.778359222E+02
2.355195439E+01  1.784078522E+02
2.356669519E+01  1.782556458E+02
2.358143598E+01  1.781404877E+02
2.359617677E+01  1.770320282E+02
2.361091756E+01  1.769696808E+02
2.362565836E+01  1.769694061E+02
2.364039915E+01  1.771191864E+02
2.365513994E+01  1.773791962E+02
2.366988073E+01  1.774625092E+02
2.368462152E+01  1.771264648E+02
2.369936232E+01  1.770508118E+02
2.371410311E+01  1.771475372E+02
2.372884390E+01  1.776867523E+02
2.374358469E+01  1.782076874E+02
2.375832548E+01  1.783780518E+02
2.377306628E+01  1.784377289E+02
2.378780707E+01  1.786370544E+02
2.380254786E+01  1.792862549E+02
2.381728865E+01  1.801600647E+02
2.383202944E+01  1.814815216E+02
2.384677024E+01  1.821752014E+02
2.386151103E+01  1.819436951E+02
2.387625182E+01  1.816664734E+02
2.389099261E+01  1.824905853E+02
2.390573341E+01  1.828990479E+02
2.392047420E+01  1.824938202E+02
2.393521499E+01  1.829455719E+02
2.394995578E+01  1.826141205E+02
2.396469657E+01  1.818999023E+02
2.397943737E+01  1.816156769E+02
2.399417816E+01  1.817637177E+02
2.400891895E+01  1.809957428E+02
2.402365974E+01  1.806032562E+02
2.403840053E+01  1.806824493E+02
2.405314133E+01  1.807216339E+02
2.406788212E+01  1.804303894E+02
2.408262291E+01  1.794777527E+02
2.409736370E+01  1.788060455E+02
2.411210449E+01  1.790580750E+02
2.412684529E+01  1.799103699E+02
2.414158608E+01  1.808411255E+02
2.415632687E+01  1.814643707E+02
2.417106766E+01  1.817162933E+02
2.418580846E+01  1.816982422E+02
2.420054925E+01  1.825272522E+02
2.421529004E+01  1.832821655E+02
2.423003083E+01  1.838986969E+02
2.424477162E+01  1.848725891E+02
2.425951242E+01  1.865689087E+02
2.427425321E+01  1.879067078E+02
2.428899400E+01  1.882778015E+02
2.430373479E+01  1.876937256E+02
2.431847558E+01  1.879605560E+02
2.433321638E+01  1.884167175E+02
2.434795717E+01  1.887633362E+02
2.436269796E+01  1.885342102E+02
2.437743875E+01  1.879216309E+02
2.439217954E+01  1.874485931E+02
2.440692034E+01  1.862429962E+02
2.442166113E+01  1.851164551E+02
2.443640192E+01  1.839976044E+02
2.445114271E+01  1.835059814E+02
2.446588351E+01  1.827038422E+02
2.448062430E+01  1.820973511E+02
2.449536509E+01  1.817346954E+02
2.451010588E+01  1.819362030E+02
2.452484667E+01  1.813445282E+02
2.453958747E+01  1.800616608E+02
2.455432826E+01  1.792796173E+02
2.456906905E+01  1.791541290E+02
2.458380984E+01  1.802584686E+02
2.459855063E+01  1.809042664E+02
2.461329143E+01  1.816231995E+02
2.462803222E+01  1.821642303E+02
2.464277301E+01  1.833088684E+02
2.465751380E+01  1.838812103E+02
2.467225460E+01  1.845658875E+02
2.468699539E+01  1.852068176E+02
2.470173618E+01  1.860367584E+02
2.471647697E+01  1.872990570E+02
2.473121776E+01  1.881253357E+02
2.474595856E+01  1.884183350E+02
2.476069935E+01  1.886016388E+02
2.477544014E+01  1.885177307E+02
2.479018093E+01  1.871275024E+02
2.480492172E+01  1.862794189E+02
2.481966252E+01  1.857525024E+02
2.483440331E+01  1.848946228E+02
2.484914410E+01  1.836117554E+02
2.486388489E+01  1.828066406E+02
2.487862568E+01  1.825616608E+02
2.489336648E+01  1.811794586E+02
2.490810727E+01  1.808301392E+02
2.492284806E+01  1.810847473E+02
2.493758885E+01  1.812678833E+02
2.495232965E+01  1.815227356E+02
2.496707044E+01  1.814244080E+02
2.498181123E+01  1.816667938E+02
2.499655202E+01  1.816914825E+02
2.501129281E+01  1.816379852E+02
2.502603361E+01  1.811064758E+02
2.504077440E+01  1.809201355E+02
2.505551519E+01  1.809909058E+02
2.507025598E+01  1.811121521E+02
2.508499677E+01  1.807707825E+02
2.509973757E+01  1.805226440E+02
2.511447836E+01  1.799884186E+02
2.512921915E+01  1.797584076E+02
2.514395994E+01  1.792058411E+02
2.515870073E+01  1.781923676E+02
2.517344153E+01  1.778200073E+02
2.518818232E+01  1.777827301E+02
2.520292311E+01  1.770243225E+02
2.521766390E+01  1.763479156E+02
2.523240470E+01  1.764157562E+02
2.524714549E+01  1.764712524E+02
2.526188628E+01  1.760240173E+02
2.527662707E+01  1.761126099E+02
2.529136786E+01  1.768052216E+02
2.530610866E+01  1.770441895E+02
2.532084945E+01  1.764893951E+02
2.533559024E+01  1.756010895E+02
2.535033103E+01  1.755707092E+02
2.536507182E+01  1.765642242E+02
2.537981262E+01  1.772542114E+02
2.539455341E+01  1.763894501E+02
2.540929420E+01  1.758360901E+02
2.542403499E+01  1.752125092E+02
2.543877578E+01  1.758436584E+02
2.545351658E+01  1.759857330E+02
2.546825737E+01  1.755767517E+02
2.548299816E+01  1.749839020E+02
2.549773895E+01  1.750504913E+02
2.551247975E+01  1.749517975E+02
2.552722054E+01  1.748164062E+02
2.554196133E+01  1.743557587E+02
2.555670212E+01  1.737083740E+02
2.557144291E+01  1.732449951E+02
2.558618371E+01  1.733507843E+02
2.560092450E+01  1.736384430E+02
2.561566529E+01  1.740104980E+02
2.563040608E+01  1.741038666E+02
2.564514687E+01  1.741402740E+02
2.565988767E+01  1.737455139E+02
2.567462846E+01  1.739731445E+02
2.568936925E+01  1.735766907E+02
2.570411004E+01  1.733175659E+02
2.571885084E+01  1.732950897E+02
2.573359163E+01  1.734431763E+02
2.574833242E+01  1.737940063E+02
2.576307321E+01  1.732149658E+02
2.577781400E+01  1.726967773E+02
2.579255480E+01  1.727665710E+02
2.580729559E+01  1.737597809E+02
2.582203638E+01  1.740038910E+02
2.583677717E+01  1.739634705E+02
2.585151796E+01  1.734000092E+02
2.586625876E+01  1.719867096E+02
2.588099955E+01  1.716306458E+02
2.589574034E+01  1.717514954E+02
2.591048113E+01  1.714700470E+02
2.592522192E+01  1.710067444E+02
2.593996272E+01  1.709405975E+02
2.595470351E+01  1.717493896E+02
2.596944430E+01  1.725439911E+02
2.598418509E+01  1.730464478E+02
2.599892589E+01  1.731342010E+02
2.601366668E+01  1.728934021E+02
2.602840747E+01  1.733373413E+02
2.604314826E+01  1.729546814E+02
2.605788905E+01  1.722986298E+02
2.607262985E+01  1.716221619E+02
2.608737064E+01  1.715285492E+02
2.610211143E+01  1.722157745E+02
2.611685222E+01  1.725971527E+02
2.613159301E+01  1.731794739E+02
2.614633381E+01  1.727471161E+02
2.616107460E+01  1.722967224E+02
2.617581539E+01  1.725151215E+02
2.619055618E+01  1.720854492E+02
2.620529697E+01  1.721329956E+02
2.622003777E+01  1.718188934E+02
2.623477856E+01  1.717570496E+02
2.624951935E+01  1.716484833E+02
2.626426014E+01  1.724243774E+02
2.627900094E+01  1.724733124E+02
2.629374173E+01  1.717779694E+02
2.630848252E+01  1.718360443E+02
2.632322331E+01  1.720029144E+02
2.633796410E+01  1.720459747E+02
2.635270490E+01  1.720840607E+02
2.636744569E+01  1.718669434E+02
2.638218648E+01  1.719756165E+02
2.639692727E+01  1.722201843E+02
2.641166806E+01  1.723636475E+02
2.642640886E+01  1.723800964E+02
2.644114965E+01  1.723246765E+02
2.645589044E+01  1.719078369E+02
2.647063123E+01  1.710793915E+02
2.648537202E+01  1.708706360E+02
2.650011282E+01  1.713984222E+02
2.651485361E+01  1.710173950E+02
2.652959440E+01  1.702019501E+02
2.654433519E+01  1.698125000E+02
2.655907599E+01  1.698569946E+02
2.657381678E+01  1.708580627E+02
2.658855757E+01  1.709284821E+02
2.660329836E+01  1.712964935E+02
2.661803915E+01  1.719738312E+02
2.663277995E+01  1.730012817E+02
2.664752074E+01  1.728255463E+02
2.666226153E+01  1.718323212E+02
2.667700232E+01  1.718752899E+02
2.669174311E+01  1.718092957E+02
2.670648391E+01  1.711971283E+02
2.672122470E+01  1.708104248E+02
2.673596549E+01  1.713871460E+02
2.675070628E+01  1.716232147E+02
2.676544707E+01  1.710617218E+02
2.678018787E+01  1.702851410E+02
2.679492866E+01  1.705478973E+02
2.680966945E+01  1.700059052E+02
2.682441024E+01  1.700975494E+02
2.683915104E+01  1.702753143E+02
2.685389183E+01  1.709653168E+02
2.686863262E+01  1.710035553E+02
2.688337341E+01  1.710140228E+02
2.689811420E+01  1.704237976E+02
2.691285500E+01  1.703589325E+02
2.692759579E+01  1.699360504E+02
2.694233658E+01  1.695749359E+02
2.695707737E+01  1.692150269E+02
2.697181816E+01  1.700535583E+02
2.698655896E+01  1.705603027E+02
2.700129975E+01  1.708699188E+02
2.701604054E+01  1.713652344E+02
2.703078133E+01  1.700457001E+02
2.704552213E+01  1.698161469E+02
2.706026292E+01  1.693240662E+02
2.707500371E+01  1.696595459E+02
2.708974450E+01  1.704222107E+02
2.710448529E+01  1.706661224E+02
2.711922609E+01  1.701699524E+02
2.713396688E+01  1.694498749E+02
2.714870767E+01  1.691253967E+02
2.716344846E+01  1.694068298E+02
2.717818925E+01  1.694036713E+02
2.719293005E+01  1.690850372E+02
2.720767084E+01  1.694316254E+02
2.722241163E+01  1.692086182E+02
2.723715242E+01  1.695845642E+02
2.725189321E+01  1.697481689E+02
2.726663401E+01  1.700005035E+02
2.728137480E+01  1.706854401E+02
2.729611559E+01  1.705412292E+02
2.731085638E+01  1.699500732E+02
2.732559718E+01  1.699790649E+02
2.734033797E+01  1.702848053E+02
2.735507876E+01  1.695751343E+02
2.736981955E+01  1.685592651E+02
2.738456034E+01  1.685536194E+02
2.739930114E+01  1.687196503E+02
2.741404193E+01  1.692566376E+02
2.742878272E+01  1.694263153E+02
2.744352351E+01  1.694253235E+02
2.745826430E+01  1.690382080E+02
2.747300510E+01  1.697020416E+02
2.748774589E+01  1.694367371E+02
2.750248668E+01  1.692566071E+02
2.751722747E+01  1.687333679E+02
2.753196826E+01  1.693397522E+02
2.754670906E+01  1.688397217E+02
2.756144985E+01  1.678871613E+02
2.757619064E+01  1.679409485E+02
2.759093143E+01  1.685827026E+02
2.760567223E+01  1.679173889E+02
2.762041302E+01  1.677489166E+02
2.763515381E+01  1.678376617E+02
2.764989460E+01  1.678700104E+02
2.766463539E+01  1.679250641E+02
2.767937619E+01  1.686416168E+02
2.769411698E+01  1.687637634E+02
2.770885777E+01  1.680583649E+02
2.772359856E+01  1.675546722E+02
2.773833935E+01  1.673042297E+02
2.775308015E+01  1.671040802E+02
2.776782094E+01  1.668540497E+02
2.778256173E+01  1.679976501E+02
2.779730252E+01  1.685461731E+02
2.781204331E+01  1.680529022E+02
2.782678411E+01  1.673053894E+02
2.784152490E+01  1.666121521E+02
2.785626569E+01  1.664556427E+02
2.787100648E+01  1.671724854E+02
2.788574728E+01  1.673619995E+02
2.790048807E+01  1.670679932E+02
2.791522886E+01  1.667136688E+02
2.792996965E+01  1.667289734E+02
2.794471044E+01  1.672362823E+02
2.795945124E+01  1.677897949E+02
2.797419203E+01  1.684250488E+02
2.798893282E+01  1.683235779E+02
2.800367361E+01  1.676214142E+02
2.801841440E+01  1.678409729E+02
2.803315520E+01  1.676749573E+02
2.804789599E+01  1.672626190E+02
2.806263678E+01  1.667077637E+02
2.807737757E+01  1.662658997E+02
2.809211837E+01  1.665662689E+02
2.810685916E+01  1.669889526E+02
2.812159995E+01  1.666305695E+02
2.813634074E+01  1.663137817E+02
2.815108153E+01  1.662264252E+02
2.816582233E+01  1.663275146E+02
2.818056312E+01  1.669753113E+02
2.819530391E+01  1.678289490E+02
2.821004470E+01  1.673155823E+02
2.822478549E+01  1.669411774E+02
2.823952629E+01  1.672083740E+02
2.825426708E+01  1.669953766E+02
2.826900787E+01  1.670562286E+02
2.828374866E+01  1.680155182E+02
2.829848945E+01  1.681443176E+02
2.831323025E+01  1.680280762E+02
2.832797104E+01  1.678224792E+02
2.834271183E+01  1.672721710E+02
2.835745262E+01  1.676236725E+02
2.837219342E+01  1.675246735E+02
2.838693421E+01  1.677153320E+02
2.840167500E+01  1.675186462E+02
2.841641579E+01  1.671409149E+02
2.843115658E+01  1.668880768E+02
2.844589738E+01  1.667483826E+02
2.846063817E+01  1.671392365E+02
2.847537896E+01  1.674525452E+02
2.849011975E+01  1.666689911E+02
2.850486054E+01  1.660782623E+02
2.851960134E+01  1.668857574E+02
2.853434213E+01  1.670850983E+02
2.854908292E+01  1.677965393E+02
2.856382371E+01  1.677985229E+02
2.857856450E+01  1.677926636E+02
2.859330530E+01  1.682398224E+02
2.860804609E+01  1.683183441E+02
2.862278688E+01  1.690460510E+02
2.863752767E+01  1.698879395E+02
2.865226847E+01  1.693379822E+02
2.866700926E+01  1.694964600E+02
2.868175005E+01  1.695942230E+02
2.869649084E+01  1.695740967E+02
2.871123163E+01  1.692193451E+02
2.872597243E+01  1.697169037E+02
2.874071322E+01  1.697606354E+02
2.875545401E+01  1.691224518E+02
2.877019480E+01  1.687524109E+02
2.878493559E+01  1.690264740E+02
2.879967639E+01  1.689601746E+02
2.881441718E+01  1.678240662E+02
2.882915797E+01  1.673270569E+02
2.884389876E+01  1.670731964E+02
2.885863955E+01  1.670586548E+02
2.887338035E+01  1.673051758E+02
2.888812114E+01  1.672090759E+02
2.890286193E+01  1.668406525E+02
2.891760272E+01  1.664761810E+02
2.893234352E+01  1.664680023E+02
2.894708431E+01  1.669182129E+02
2.896182510E+01  1.675964050E+02
2.897656589E+01  1.676856384E+02
2.899130668E+01  1.668312378E+02
2.900604748E+01  1.665635529E+02
2.902078827E+01  1.662392731E+02
2.903552906E+01  1.654905548E+02
2.905026985E+01  1.648993073E+02
2.906501064E+01  1.644934998E+02
2.907975144E+01  1.647352448E+02
2.909449223E+01  1.653407593E+02
2.910923302E+01  1.662092438E+02
2.912397381E+01  1.663411713E+02
2.913871461E+01  1.666692810E+02
2.915345540E+01  1.662531891E+02
2.916819619E+01  1.657537079E+02
2.918293698E+01  1.648197327E+02
2.919767777E+01  1.642071228E+02
2.921241857E+01  1.646281281E+02
2.922715936E+01  1.648332672E+02
2.924190015E+01  1.647098999E+02
2.925664094E+01  1.644243011E+02
2.927138173E+01  1.641252441E+02
2.928612253E+01  1.641937256E+02
2.930086332E+01  1.648609619E+02
2.931560411E+01  1.649532318E+02
2.933034490E+01  1.649194031E+02
2.934508569E+01  1.647950745E+02
2.935982649E+01  1.644744873E+02
2.937456728E+01  1.643724670E+02
2.938930807E+01  1.643941650E+02
2.940404886E+01  1.638301239E+02
2.941878966E+01  1.636310425E+02
2.943353045E+01  1.636569977E+02
2.944827124E+01  1.640793457E+02
2.946301203E+01  1.641938782E+02
2.947775282E+01  1.640921631E+02
2.949249362E+01  1.639090729E+02
2.950723441E+01  1.640460052E+02
2.952197520E+01  1.643136292E+02
2.953671599E+01  1.642126770E+02
2.955145678E+01  1.634095917E+02
2.956619758E+01  1.630586090E+02
2.958093837E+01  1.635470886E+02
2.959567916E+01  1.631484833E+02
2.961041995E+01  1.630938263E+02
2.962516074E+01  1.633149872E+02
2.963990154E+01  1.632552948E+02
2.965464233E+01  1.630954742E+02
2.966938312E+01  1.633480377E+02
2.968412391E+01  1.635775604E+02
2.969886471E+01  1.633433685E+02
2.971360550E+01  1.632790985E+02
2.972834629E+01  1.628602142E+02
2.974308708E+01  1.624999695E+02
2.975782787E+01  1.622915039E+02
2.977256867E+01  1.621824799E+02
2.978730946E+01  1.622012024E+02
2.980205025E+01  1.622251434E+02
2.981679104E+01  1.621956940E+02
2.983153183E+01  1.624492645E+02
2.984627263E+01  1.626143799E+02
2.986101342E+01  1.622457733E+02
2.987575421E+01  1.617299347E+02
2.989049500E+01  1.619967804E+02
2.990523579E+01  1.620075684E+02
2.991997659E+01  1.608766327E+02
2.993471738E+01  1.599021301E+02
2.994945817E+01  1.588840179E+02
2.996419896E+01  1.584675903E+02
2.997893976E+01  1.575824585E+02
2.999368055E+01  1.570031586E+02
3.000842134E+01  1.562242584E+02
3.002316213E+01  1.552952576E+02
3.003790292E+01  1.538531342E+02
3.005264372E+01  1.532234802E+02
3.006738451E+01  1.522620697E+02
3.008212530E+01  1.512811279E+02
3.009686609E+01  1.502305756E+02
3.011160688E+01  1.499005280E+02
3.012634768E+01  1.493555298E+02
3.014108847E+01  1.488184967E+02
3.015582926E+01  1.475158844E+02
3.017057005E+01  1.455050812E+02
3.018531085E+01  1.439277039E+02
3.020005164E+01  1.425124664E+02
3.021479243E+01  1.413383942E+02
3.022953322E+01  1.392498627E+02
3.024427401E+01  1.371759949E+02
3.025901481E+01  1.359402924E+02
3.027375560E+01  1.344618073E+02
3.028849639E+01  1.319328613E+02
3.030323718E+01  1.300245361E+02
3.031797797E+01  1.288356476E+02
3.033271877E+01  1.278535767E+02
3.034745956E+01  1.262744904E+02
3.036220035E+01  1.252062302E+02
3.037694114E+01  1.247569504E+02
3.039168193E+01  1.239163284E+02
3.040642273E+01  1.231984634E+02
3.042116352E+01  1.223458633E+02
3.043590431E+01  1.216763916E+02
3.045064510E+01  1.218292694E+02
3.046538590E+01  1.209713516E+02
3.048012669E+01  1.198057556E+02
3.049486748E+01  1.188933716E+02
3.050960827E+01  1.180387115E+02
3.052434906E+01  1.171828537E+02
3.053908986E+01  1.157449875E+02
3.055383065E+01  1.151086884E+02
3.056857144E+01  1.141654434E+02
3.058331223E+01  1.133503265E+02
3.059805302E+01  1.121893463E+02
3.061279382E+01  1.112385101E+02
3.062753461E+01  1.103260803E+02
3.064227540E+01  1.091659317E+02
3.065701619E+01  1.076300354E+02
3.067175698E+01  1.063630066E+02
3.068649778E+01  1.057097015E+02
3.070123857E+01  1.053850708E+02
3.071597936E+01  1.043983841E+02
3.073072015E+01  1.030782852E+02
3.074546095E+01  1.019360962E+02
3.076020174E+01  1.009746704E+02
3.077494253E+01  1.007806778E+02
3.078968332E+01  1.000594864E+02
3.080442411E+01  9.932184601E+01
3.081916491E+01  9.825762177E+01
3.083390570E+01  9.744731140E+01
3.084864649E+01  9.621311951E+01
3.086338728E+01  9.504378510E+01
3.087812807E+01  9.455135345E+01
3.089286887E+01  9.353031158E+01
3.090760966E+01  9.279273224E+01
3.092235045E+01  9.161365509E+01
3.093709124E+01  8.992974854E+01
3.095183203E+01  8.868386841E+01
3.096657283E+01  8.820306396E+01
3.098131362E+01  8.721002197E+01
3.099605441E+01  8.629673767E+01
3.101079520E+01  8.582491302E+01
3.102553600E+01  8.516258240E+01
3.104027679E+01  8.405364990E+01
3.105501758E+01  8.314300537E+01
3.106975837E+01  8.181056976E+01
3.108449916E+01  8.069446564E+01
3.109923996E+01  8.047380829E+01
3.111398075E+01  7.959281921E+01
3.112872154E+01  7.850320435E+01
3.114346233E+01  7.741292572E+01
3.115820312E+01  7.627206421E+01
3.117294392E+01  7.584197998E+01
3.118768471E+01  7.526319122E+01
3.120242550E+01  7.408748627E+01
3.121716629E+01  7.284293365E+01
3.123190709E+01  7.176473999E+01
3.124664788E+01  7.097447205E+01
3.126138867E+01  7.018032837E+01
3.127612946E+01  6.947120667E+01
3.129087025E+01  6.889647675E+01
3.130561105E+01  6.793666077E+01
3.132035184E+01  6.742340851E+01
3.133509263E+01  6.660829163E+01
3.134983342E+01  6.542208862E+01
3.136457421E+01  6.478916931E+01
3.137931501E+01  6.392232513E+01
3.139405580E+01  6.269017410E+01
3.140879659E+01  6.133909225E+01
3.142353738E+01  6.005736542E+01
3.143827817E+01  5.876579285E+01
3.145301897E+01  5.793973541E+01
3.146775976E+01  5.767381287E+01
3.148250055E+01  5.725947952E+01
3.149724134E+01  5.668604279E+01
3.151198214E+01  5.588202286E+01
3.152672293E+01  5.496175766E+01
3.154146372E+01  5.399684906E+01
3.155620451E+01  5.243713760E+01
3.157094530E+01  5.178595734E+01
3.158568610E+01  5.154052734E+01
3.160042689E+01  5.141701508E+01
3.161516768E+01  5.055702591E+01
3.162990847E+01  4.932301331E+01
3.164464926E+01  4.878643799E+01
3.165939006E+01  4.812563324E+01
3.167413085E+01  4.684731293E+01
3.168887164E+01  4.623530960E+01
3.170361243E+01  4.552867508E+01
3.171835322E+01  4.483338547E+01
3.173309402E+01  4.401164246E+01
3.174783481E+01  4.355962753E+01
3.176257560E+01  4.248437500E+01
3.177731639E+01  4.121693420E+01
3.179205719E+01  4.105374908E+01
3.180679798E+01  3.929215622E+01
3.182153877E+01  3.820533752E+01
3.183627956E+01  3.837065887E+01
3.185102035E+01  3.753006363E+01
3.186576115E+01  3.662809753E+01
3.188050194E+01  3.743420410E+01
3.189524273E+01  3.663336563E+01
3.190998352E+01  3.254490662E+01
3.192472431E+01  3.067492104E+01
3.193946511E+01  2.962140083E+01
3.195420590E+01  2.754873848E+01
3.196894669E+01  2.752512741E+01
3.198368748E+01  2.724698830E+01
3.199842827E+01  2.906221581E+01
3.201316907E+01  3.059353828E+01
3.202790986E+01  2.771468163E+01
3.204265065E+01  2.771468163E+01
3.205739144E+01  2.195997047E+01
3.207213224E+01  2.156907082E+01
3.208687303E+01  2.140402985E+01
