# == pyFAI calibration ==
# Distance Sample to Detector: 0.11507480176033233 m
# PONI: 5.477e-03, 4.716e-03 m
# Rotations: 0.004686 0.005536 0.000000 rad
# 
# == Fit2d calibration ==
# Distance Sample-beamCenter: 115.078 mm
# Center: x=55.690, y=81.516 pix
# Tilt: 0.416 deg  TiltPlanRot: 130.247 deg
# 
# Detector Detector	 Spline= None	 PixelSize= 7.500e-05, 7.500e-05 m
#    Detector has a mask: False 
#    Detector has a dark current: False 
#    detector has a flat field: False 
# 
# Wavelength: 4.833e-11 m
# Mask applied: None
# Dark current applied: None
# Flat field applied: None
# Polarization factor: None
# Normalization factor: None
#
# 2th_deg	 I
1.131209591E+00  3.415853119E+01
1.145950384E+00  4.666246033E+01
1.160691176E+00  5.485736847E+01
1.175431968E+00  6.128795242E+01
1.190172760E+00  6.771113586E+01
1.204913552E+00  7.239653778E+01
1.219654344E+00  7.776567078E+01
1.234395136E+00  8.066603851E+01
1.249135928E+00  8.490853119E+01
1.263876720E+00  9.032239532E+01
1.278617513E+00  9.441814423E+01
1.293358305E+00  9.783254242E+01
1.308099097E+00  9.861741638E+01
1.322839889E+00  1.024684677E+02
1.337580681E+00  1.063830643E+02
1.352321473E+00  1.086088181E+02
1.367062265E+00  1.105464859E+02
1.381803057E+00  1.099021835E+02
1.396543850E+00  1.116935272E+02
1.411284642E+00  1.128796692E+02
1.426025434E+00  1.141935425E+02
1.440766226E+00  1.162939911E+02
1.455507018E+00  1.175720367E+02
1.470247810E+00  1.187582245E+02
1.484988602E+00  1.211065521E+02
1.499729394E+00  1.217040482E+02
1.514470186E+00  1.232627106E+02
1.529210979E+00  1.238550568E+02
1.543951771E+00  1.244720154E+02
1.558692563E+00  1.248245697E+02
1.573433355E+00  1.255600891E+02
1.588174147E+00  1.275033188E+02
1.602914939E+00  1.286945801E+02
1.617655731E+00  1.295353546E+02
1.632396523E+00  1.294198608E+02
1.647137315E+00  1.306094513E+02
1.661878108E+00  1.314419250E+02
1.676618900E+00  1.303777161E+02
1.691359692E+00  1.310207367E+02
1.706100484E+00  1.311937408E+02
1.720841276E+00  1.332624664E+02
1.735582068E+00  1.348361511E+02
1.750322860E+00  1.357523193E+02
1.765063652E+00  1.355015717E+02
1.779804444E+00  1.360167847E+02
1.794545237E+00  1.367778931E+02
1.809286029E+00  1.372572784E+02
1.824026821E+00  1.379211426E+02
1.838767613E+00  1.384451447E+02
1.853508405E+00  1.396287384E+02
1.868249197E+00  1.392284088E+02
1.882989989E+00  1.395093689E+02
1.897730781E+00  1.393121948E+02
1.912471573E+00  1.403692932E+02
1.927212366E+00  1.417672272E+02
1.941953158E+00  1.423382874E+02
1.956693950E+00  1.433450470E+02
1.971434742E+00  1.437602692E+02
1.986175534E+00  1.446697845E+02
2.000916326E+00  1.453533783E+02
2.015657118E+00  1.458526764E+02
2.030397910E+00  1.472183228E+02
2.045138702E+00  1.483875885E+02
2.059879495E+00  1.494067688E+02
2.074620287E+00  1.501591797E+02
2.089361079E+00  1.504709473E+02
2.104101871E+00  1.512846832E+02
2.118842663E+00  1.517292480E+02
2.133583455E+00  1.519953461E+02
2.148324247E+00  1.520435638E+02
2.163065039E+00  1.524948730E+02
2.177805831E+00  1.535232086E+02
2.192546624E+00  1.541076965E+02
2.207287416E+00  1.542518463E+02
2.222028208E+00  1.551650238E+02
2.236769000E+00  1.554907074E+02
2.251509792E+00  1.558724518E+02
2.266250584E+00  1.560886536E+02
2.280991376E+00  1.568463593E+02
2.295732168E+00  1.572443542E+02
2.310472960E+00  1.569951630E+02
2.325213753E+00  1.561769104E+02
2.339954545E+00  1.550545197E+02
2.354695337E+00  1.547642670E+02
2.369436129E+00  1.559495087E+02
2.384176921E+00  1.570973511E+02
2.398917713E+00  1.577019196E+02
2.413658505E+00  1.576800690E+02
2.428399297E+00  1.578795471E+02
2.443140089E+00  1.573129120E+02
2.457880882E+00  1.573335266E+02
2.472621674E+00  1.573135223E+02
2.487362466E+00  1.575700684E+02
2.502103258E+00  1.582597656E+02
2.516844050E+00  1.588440247E+02
2.531584842E+00  1.590661926E+02
2.546325634E+00  1.582886810E+02
2.561066426E+00  1.578489838E+02
2.575807219E+00  1.575240631E+02
2.590548011E+00  1.583253632E+02
2.605288803E+00  1.579924927E+02
2.620029595E+00  1.577449493E+02
2.634770387E+00  1.568104858E+02
2.649511179E+00  1.569645081E+02
2.664251971E+00  1.568885345E+02
2.678992763E+00  1.568304596E+02
2.693733555E+00  1.571349487E+02
2.708474348E+00  1.574425201E+02
2.723215140E+00  1.572252808E+02
2.737955932E+00  1.576264954E+02
2.752696724E+00  1.582750549E+02
2.767437516E+00  1.583183441E+02
2.782178308E+00  1.578132172E+02
2.796919100E+00  1.570742493E+02
2.811659892E+00  1.567618256E+02
2.826400684E+00  1.564610901E+02
2.841141477E+00  1.564039154E+02
2.855882269E+00  1.562064514E+02
2.870623061E+00  1.565130615E+02
2.885363853E+00  1.565984497E+02
2.900104645E+00  1.564955292E+02
2.914845437E+00  1.564120026E+02
2.929586229E+00  1.558884430E+02
2.944327021E+00  1.552423553E+02
2.959067813E+00  1.547583771E+02
2.973808606E+00  1.545265808E+02
2.988549398E+00  1.543590393E+02
3.003290190E+00  1.536443176E+02
3.018030982E+00  1.535239258E+02
3.032771774E+00  1.536894073E+02
3.047512566E+00  1.549183807E+02
3.062253358E+00  1.549249725E+02
3.076994150E+00  1.549064026E+02
3.091734942E+00  1.542501221E+02
3.106475735E+00  1.537200012E+02
3.121216527E+00  1.537782745E+02
3.135957319E+00  1.535160522E+02
3.150698111E+00  1.539076691E+02
3.165438903E+00  1.534444885E+02
3.180179695E+00  1.531232147E+02
3.194920487E+00  1.534453125E+02
3.209661279E+00  1.532895203E+02
3.224402071E+00  1.533319550E+02
3.239142864E+00  1.532163849E+02
3.253883656E+00  1.529321899E+02
3.268624448E+00  1.534243011E+02
3.283365240E+00  1.534144897E+02
3.298106032E+00  1.533329163E+02
3.312846824E+00  1.530536652E+02
3.327587616E+00  1.526041870E+02
3.342328408E+00  1.530188446E+02
3.357069200E+00  1.536168823E+02
3.371809993E+00  1.533493347E+02
3.386550785E+00  1.527516632E+02
3.401291577E+00  1.517305298E+02
3.416032369E+00  1.521794891E+02
3.430773161E+00  1.523459015E+02
3.445513953E+00  1.518282471E+02
3.460254745E+00  1.512734833E+02
3.474995537E+00  1.511673431E+02
3.489736329E+00  1.515552063E+02
3.504477122E+00  1.517279053E+02
3.519217914E+00  1.511585541E+02
3.533958706E+00  1.509033203E+02
3.548699498E+00  1.511788025E+02
3.563440290E+00  1.522566986E+02
3.578181082E+00  1.527120056E+02
3.592921874E+00  1.530594330E+02
3.607662666E+00  1.535768280E+02
3.622403458E+00  1.536823883E+02
3.637144251E+00  1.533875275E+02
3.651885043E+00  1.522798462E+02
3.666625835E+00  1.514407043E+02
3.681366627E+00  1.501403046E+02
3.696107419E+00  1.486613617E+02
3.710848211E+00  1.473420258E+02
3.725589003E+00  1.473908844E+02
3.740329795E+00  1.484241486E+02
3.755070587E+00  1.493480835E+02
3.769811380E+00  1.492086029E+02
3.784552172E+00  1.500767517E+02
3.799292964E+00  1.506642761E+02
3.814033756E+00  1.512452240E+02
3.828774548E+00  1.512643585E+02
3.843515340E+00  1.514968414E+02
3.858256132E+00  1.515055237E+02
3.872996924E+00  1.516472626E+02
3.887737717E+00  1.510519867E+02
3.902478509E+00  1.510108185E+02
3.917219301E+00  1.500138855E+02
3.931960093E+00  1.492268524E+02
3.946700885E+00  1.484598846E+02
3.961441677E+00  1.476478119E+02
3.976182469E+00  1.466585083E+02
3.990923261E+00  1.461828461E+02
4.005664053E+00  1.461825256E+02
4.020404846E+00  1.455923615E+02
4.035145638E+00  1.452584686E+02
4.049886430E+00  1.445711060E+02
4.064627222E+00  1.444826813E+02
4.079368014E+00  1.441858063E+02
4.094108806E+00  1.435919189E+02
4.108849598E+00  1.428646240E+02
4.123590390E+00  1.420094604E+02
4.138331182E+00  1.417688446E+02
4.153071975E+00  1.419419098E+02
4.167812767E+00  1.420331268E+02
4.182553559E+00  1.418114319E+02
4.197294351E+00  1.408532257E+02
4.212035143E+00  1.402730408E+02
4.226775935E+00  1.400555267E+02
4.241516727E+00  1.401126404E+02
4.256257519E+00  1.404047699E+02
4.270998311E+00  1.403724213E+02
4.285739104E+00  1.397454071E+02
4.300479896E+00  1.388005981E+02
4.315220688E+00  1.380295258E+02
4.329961480E+00  1.379892883E+02
4.344702272E+00  1.379950409E+02
4.359443064E+00  1.377260895E+02
4.374183856E+00  1.373095856E+02
4.388924648E+00  1.370260162E+02
4.403665440E+00  1.367293396E+02
4.418406233E+00  1.362409973E+02
4.433147025E+00  1.363358307E+02
4.447887817E+00  1.365909882E+02
4.462628609E+00  1.369492188E+02
4.477369401E+00  1.369308014E+02
4.492110193E+00  1.361204834E+02
4.506850985E+00  1.355770569E+02
4.521591777E+00  1.348613586E+02
4.536332569E+00  1.347236481E+02
4.551073362E+00  1.346898499E+02
4.565814154E+00  1.350100708E+02
4.580554946E+00  1.349414368E+02
4.595295738E+00  1.346983337E+02
4.610036530E+00  1.339617615E+02
4.624777322E+00  1.336046906E+02
4.639518114E+00  1.335709534E+02
4.654258906E+00  1.338708191E+02
4.668999698E+00  1.340063477E+02
4.683740491E+00  1.338668060E+02
4.698481283E+00  1.335676270E+02
4.713222075E+00  1.333806458E+02
4.727962867E+00  1.333943176E+02
4.742703659E+00  1.329973907E+02
4.757444451E+00  1.326601410E+02
4.772185243E+00  1.322070160E+02
4.786926035E+00  1.324098053E+02
4.801666827E+00  1.326664124E+02
4.816407620E+00  1.333841400E+02
4.831148412E+00  1.334067688E+02
4.845889204E+00  1.324147034E+02
4.860629996E+00  1.312994690E+02
4.875370788E+00  1.302954559E+02
4.890111580E+00  1.304623108E+02
4.904852372E+00  1.307877197E+02
4.919593164E+00  1.309743195E+02
4.934333956E+00  1.311313629E+02
4.949074749E+00  1.307072449E+02
4.963815541E+00  1.303571625E+02
4.978556333E+00  1.302178040E+02
4.993297125E+00  1.299004211E+02
5.008037917E+00  1.299862213E+02
5.022778709E+00  1.295831604E+02
5.037519501E+00  1.293250885E+02
5.052260293E+00  1.291632538E+02
5.067001086E+00  1.292487030E+02
5.081741878E+00  1.293459015E+02
5.096482670E+00  1.294777374E+02
5.111223462E+00  1.293899384E+02
5.125964254E+00  1.292157898E+02
5.140705046E+00  1.291764374E+02
5.155445838E+00  1.287154846E+02
5.170186630E+00  1.280934753E+02
5.184927422E+00  1.276016693E+02
5.199668215E+00  1.277359238E+02
5.214409007E+00  1.277663956E+02
5.229149799E+00  1.271958389E+02
5.243890591E+00  1.264971924E+02
5.258631383E+00  1.262606812E+02
5.273372175E+00  1.262970581E+02
5.288112967E+00  1.260845871E+02
5.302853759E+00  1.267301559E+02
5.317594551E+00  1.272223740E+02
5.332335344E+00  1.274730301E+02
5.347076136E+00  1.272627182E+02
5.361816928E+00  1.268555527E+02
5.376557720E+00  1.266728058E+02
5.391298512E+00  1.267084503E+02
5.406039304E+00  1.267946777E+02
5.420780096E+00  1.267144318E+02
5.435520888E+00  1.263323898E+02
5.450261680E+00  1.261085892E+02
5.465002473E+00  1.262635422E+02
5.479743265E+00  1.259869919E+02
5.494484057E+00  1.258730011E+02
5.509224849E+00  1.254222183E+02
5.523965641E+00  1.254093094E+02
5.538706433E+00  1.252952194E+02
5.553447225E+00  1.251927261E+02
5.568188017E+00  1.255271149E+02
5.582928809E+00  1.256955032E+02
5.597669602E+00  1.259852448E+02
5.612410394E+00  1.262718658E+02
5.627151186E+00  1.262551727E+02
5.641891978E+00  1.263442764E+02
5.656632770E+00  1.259011688E+02
5.671373562E+00  1.264922409E+02
5.686114354E+00  1.267158737E+02
5.700855146E+00  1.271056747E+02
5.715595938E+00  1.268883820E+02
5.730336731E+00  1.265932846E+02
5.745077523E+00  1.269677200E+02
5.759818315E+00  1.267714539E+02
5.774559107E+00  1.264429321E+02
5.789299899E+00  1.261973114E+02
5.804040691E+00  1.265149765E+02
5.818781483E+00  1.260326691E+02
5.833522275E+00  1.253413086E+02
5.848263067E+00  1.247243805E+02
5.863003860E+00  1.247449493E+02
5.877744652E+00  1.250834274E+02
5.892485444E+00  1.252080917E+02
5.907226236E+00  1.251135559E+02
5.921967028E+00  1.250809326E+02
5.936707820E+00  1.254071884E+02
5.951448612E+00  1.254173203E+02
5.966189404E+00  1.255852509E+02
5.980930196E+00  1.253555374E+02
5.995670989E+00  1.250465698E+02
6.010411781E+00  1.246671982E+02
6.025152573E+00  1.248754578E+02
6.039893365E+00  1.248015289E+02
6.054634157E+00  1.247432480E+02
6.069374949E+00  1.246949081E+02
6.084115741E+00  1.250252609E+02
6.098856533E+00  1.254852600E+02
6.113597325E+00  1.258713379E+02
6.128338118E+00  1.257987823E+02
6.143078910E+00  1.256721802E+02
6.157819702E+00  1.251968918E+02
6.172560494E+00  1.250972214E+02
6.187301286E+00  1.256145325E+02
6.202042078E+00  1.261455688E+02
6.216782870E+00  1.257594147E+02
6.231523662E+00  1.254086304E+02
6.246264454E+00  1.254853592E+02
6.261005247E+00  1.258838959E+02
6.275746039E+00  1.252837219E+02
6.290486831E+00  1.246047287E+02
6.305227623E+00  1.241396103E+02
6.319968415E+00  1.243483963E+02
6.334709207E+00  1.250606232E+02
6.349449999E+00  1.257870865E+02
6.364190791E+00  1.262539597E+02
6.378931584E+00  1.257230682E+02
6.393672376E+00  1.254420853E+02
6.408413168E+00  1.251246948E+02
6.423153960E+00  1.254956818E+02
6.437894752E+00  1.258609467E+02
6.452635544E+00  1.258245926E+02
6.467376336E+00  1.262544250E+02
6.482117128E+00  1.263812485E+02
6.496857920E+00  1.267152557E+02
6.511598713E+00  1.265957870E+02
6.526339505E+00  1.267183838E+02
6.541080297E+00  1.264901505E+02
6.555821089E+00  1.266555710E+02
6.570561881E+00  1.269151688E+02
6.585302673E+00  1.269550781E+02
6.600043465E+00  1.270761719E+02
6.614784257E+00  1.267144089E+02
6.629525049E+00  1.264617157E+02
6.644265842E+00  1.260682983E+02
6.659006634E+00  1.260342789E+02
6.673747426E+00  1.265324554E+02
6.688488218E+00  1.270952988E+02
6.703229010E+00  1.272017517E+02
6.717969802E+00  1.266931458E+02
6.732710594E+00  1.263430252E+02
6.747451386E+00  1.267340775E+02
6.762192178E+00  1.270999298E+02
6.776932971E+00  1.274891586E+02
6.791673763E+00  1.277261810E+02
6.806414555E+00  1.280966187E+02
6.821155347E+00  1.284962769E+02
6.835896139E+00  1.281078339E+02
6.850636931E+00  1.278396759E+02
6.865377723E+00  1.274445343E+02
6.880118515E+00  1.271465454E+02
6.894859307E+00  1.276287384E+02
6.909600100E+00  1.277368011E+02
6.924340892E+00  1.278760910E+02
6.939081684E+00  1.275734634E+02
6.953822476E+00  1.272149963E+02
6.968563268E+00  1.274448853E+02
6.983304060E+00  1.277435760E+02
6.998044852E+00  1.279858398E+02
7.012785644E+00  1.275355453E+02
7.027526436E+00  1.271428299E+02
7.042267229E+00  1.273920059E+02
7.057008021E+00  1.276405563E+02
7.071748813E+00  1.280491028E+02
7.086489605E+00  1.286165771E+02
7.101230397E+00  1.288203278E+02
7.115971189E+00  1.289233551E+02
7.130711981E+00  1.284177856E+02
7.145452773E+00  1.282897034E+02
7.160193565E+00  1.283013611E+02
7.174934358E+00  1.284216003E+02
7.189675150E+00  1.284480286E+02
7.204415942E+00  1.283640747E+02
7.219156734E+00  1.287075958E+02
7.233897526E+00  1.283530121E+02
7.248638318E+00  1.286158447E+02
7.263379110E+00  1.287700348E+02
7.278119902E+00  1.289280243E+02
7.292860694E+00  1.287774811E+02
7.307601487E+00  1.290278473E+02
7.322342279E+00  1.293554840E+02
7.337083071E+00  1.297331238E+02
7.351823863E+00  1.297172089E+02
7.366564655E+00  1.293193817E+02
7.381305447E+00  1.296110382E+02
7.396046239E+00  1.294261627E+02
7.410787031E+00  1.298634186E+02
7.425527823E+00  1.300365448E+02
7.440268616E+00  1.299982910E+02
7.455009408E+00  1.297393646E+02
7.469750200E+00  1.297471771E+02
7.484490992E+00  1.294022827E+02
7.499231784E+00  1.299149628E+02
7.513972576E+00  1.301203461E+02
7.528713368E+00  1.307149963E+02
7.543454160E+00  1.306931152E+02
7.558194953E+00  1.306968842E+02
7.572935745E+00  1.309432678E+02
7.587676537E+00  1.313147430E+02
7.602417329E+00  1.315627747E+02
7.617158121E+00  1.312504578E+02
7.631898913E+00  1.309268951E+02
7.646639705E+00  1.312577209E+02
7.661380497E+00  1.320296326E+02
7.676121289E+00  1.324051056E+02
7.690862082E+00  1.322675934E+02
7.705602874E+00  1.323364258E+02
7.720343666E+00  1.323453827E+02
7.735084458E+00  1.324481659E+02
7.749825250E+00  1.323508148E+02
7.764566042E+00  1.326499786E+02
7.779306834E+00  1.328831940E+02
7.794047626E+00  1.333478699E+02
7.808788418E+00  1.337450714E+02
7.823529211E+00  1.332764130E+02
7.838270003E+00  1.333707733E+02
7.853010795E+00  1.334239960E+02
7.867751587E+00  1.335519257E+02
7.882492379E+00  1.334448242E+02
7.897233171E+00  1.335769501E+02
7.911973963E+00  1.341437225E+02
7.926714755E+00  1.351596375E+02
7.941455547E+00  1.355444031E+02
7.956196340E+00  1.357536011E+02
7.970937132E+00  1.363844910E+02
7.985677924E+00  1.372117004E+02
8.000418716E+00  1.379400482E+02
8.015159508E+00  1.383342743E+02
8.029900300E+00  1.387036133E+02
8.044641092E+00  1.391728973E+02
8.059381884E+00  1.402485352E+02
8.074122676E+00  1.417893219E+02
8.088863469E+00  1.428564758E+02
8.103604261E+00  1.440627136E+02
8.118345053E+00  1.453747711E+02
8.133085845E+00  1.464055939E+02
8.147826637E+00  1.479796753E+02
8.162567429E+00  1.493841858E+02
8.177308221E+00  1.502101135E+02
8.192049013E+00  1.508759613E+02
8.206789805E+00  1.511277008E+02
8.221530598E+00  1.520179749E+02
8.236271390E+00  1.527040558E+02
8.251012182E+00  1.535456848E+02
8.265752974E+00  1.547174225E+02
8.280493766E+00  1.555954437E+02
8.295234558E+00  1.575274963E+02
8.309975350E+00  1.597044220E+02
8.324716142E+00  1.634159088E+02
8.339456934E+00  1.683253479E+02
8.354197727E+00  1.733990784E+02
8.368938519E+00  1.792036438E+02
8.383679311E+00  1.835694885E+02
8.398420103E+00  1.869118958E+02
8.413160895E+00  1.887414551E+02
8.427901687E+00  1.877369690E+02
8.442642479E+00  1.836681671E+02
8.457383271E+00  1.789510803E+02
8.472124063E+00  1.721798553E+02
8.486864856E+00  1.665282288E+02
8.501605648E+00  1.608550110E+02
8.516346440E+00  1.582124329E+02
8.531087232E+00  1.590098572E+02
8.545828024E+00  1.595525970E+02
8.560568816E+00  1.584179840E+02
8.575309608E+00  1.555541992E+02
8.590050400E+00  1.530461578E+02
8.604791192E+00  1.508751221E+02
8.619531985E+00  1.496686554E+02
8.634272777E+00  1.494977264E+02
8.649013569E+00  1.490371704E+02
8.663754361E+00  1.486951599E+02
8.678495153E+00  1.478053284E+02
8.693235945E+00  1.472408295E+02
8.707976737E+00  1.469517212E+02
8.722717529E+00  1.472055817E+02
8.737458321E+00  1.476252594E+02
8.752199114E+00  1.479559784E+02
8.766939906E+00  1.483058319E+02
8.781680698E+00  1.483925934E+02
8.796421490E+00  1.489258118E+02
8.811162282E+00  1.495370941E+02
8.825903074E+00  1.505297546E+02
8.840643866E+00  1.508285828E+02
8.855384658E+00  1.512996674E+02
8.870125451E+00  1.515431519E+02
8.884866243E+00  1.521168823E+02
8.899607035E+00  1.527131653E+02
8.914347827E+00  1.529836578E+02
8.929088619E+00  1.536255188E+02
8.943829411E+00  1.547561646E+02
8.958570203E+00  1.559961395E+02
8.973310995E+00  1.568069763E+02
8.988051787E+00  1.566502991E+02
9.002792580E+00  1.566480408E+02
9.017533372E+00  1.564589691E+02
9.032274164E+00  1.572709808E+02
9.047014956E+00  1.579147034E+02
9.061755748E+00  1.579736023E+02
9.076496540E+00  1.577145386E+02
9.091237332E+00  1.581931915E+02
9.105978124E+00  1.584401855E+02
9.120718916E+00  1.587170563E+02
9.135459709E+00  1.586295166E+02
9.150200501E+00  1.590509644E+02
9.164941293E+00  1.595361176E+02
9.179682085E+00  1.600104065E+02
9.194422877E+00  1.603312988E+02
9.209163669E+00  1.607083282E+02
9.223904461E+00  1.613098297E+02
9.238645253E+00  1.613618622E+02
9.253386045E+00  1.615230865E+02
9.268126838E+00  1.617440338E+02
9.282867630E+00  1.625995331E+02
9.297608422E+00  1.628623810E+02
9.312349214E+00  1.627983093E+02
9.327090006E+00  1.628657074E+02
9.341830798E+00  1.633765717E+02
9.356571590E+00  1.642042236E+02
9.371312382E+00  1.648091125E+02
9.386053174E+00  1.650838165E+02
9.400793967E+00  1.658545837E+02
9.415534759E+00  1.664885101E+02
9.430275551E+00  1.668013916E+02
9.445016343E+00  1.672784882E+02
9.459757135E+00  1.677472076E+02
9.474497927E+00  1.679924316E+02
9.489238719E+00  1.674366913E+02
9.503979511E+00  1.674022675E+02
9.518720303E+00  1.677069702E+02
9.533461096E+00  1.686699829E+02
9.548201888E+00  1.688154297E+02
9.562942680E+00  1.690699768E+02
9.577683472E+00  1.694473419E+02
9.592424264E+00  1.697902985E+02
9.607165056E+00  1.699296722E+02
9.621905848E+00  1.706267242E+02
9.636646640E+00  1.709622650E+02
9.651387432E+00  1.717977142E+02
9.666128225E+00  1.720142365E+02
9.680869017E+00  1.725157928E+02
9.695609809E+00  1.732075806E+02
9.710350601E+00  1.750581055E+02
9.725091393E+00  1.780669250E+02
9.739832185E+00  1.821796570E+02
9.754572977E+00  1.880285492E+02
9.769313769E+00  1.945652313E+02
9.784054561E+00  2.026437378E+02
9.798795354E+00  2.102701111E+02
9.813536146E+00  2.176172485E+02
9.828276938E+00  2.214724884E+02
9.843017730E+00  2.207265472E+02
9.857758522E+00  2.159704742E+02
9.872499314E+00  2.088048248E+02
9.887240106E+00  2.015717316E+02
9.901980898E+00  1.943998718E+02
9.916721690E+00  1.901127167E+02
9.931462483E+00  1.869594574E+02
9.946203275E+00  1.860158234E+02
9.960944067E+00  1.871066284E+02
9.975684859E+00  1.891433868E+02
9.990425651E+00  1.918911133E+02
1.000516644E+01  1.945951538E+02
1.001990724E+01  1.981058350E+02
1.003464803E+01  2.009806824E+02
1.004938882E+01  2.026751404E+02
1.006412961E+01  2.037187653E+02
1.007887040E+01  2.035541077E+02
1.009361120E+01  2.016030426E+02
1.010835199E+01  1.979031677E+02
1.012309278E+01  1.932931824E+02
1.013783357E+01  1.894167175E+02
1.015257436E+01  1.861570435E+02
1.016731516E+01  1.827318268E+02
1.018205595E+01  1.792226562E+02
1.019679674E+01  1.760899963E+02
1.021153753E+01  1.745343018E+02
1.022627832E+01  1.751010742E+02
1.024101912E+01  1.774768066E+02
1.025575991E+01  1.789418182E+02
1.027050070E+01  1.781658783E+02
1.028524149E+01  1.760773010E+02
1.029998229E+01  1.739002991E+02
1.031472308E+01  1.722600250E+02
1.032946387E+01  1.704795837E+02
1.034420466E+01  1.686877747E+02
1.035894545E+01  1.672225037E+02
1.037368625E+01  1.660180054E+02
1.038842704E+01  1.651177063E+02
1.040316783E+01  1.640348816E+02
1.041790862E+01  1.629348755E+02
1.043264941E+01  1.624440308E+02
1.044739021E+01  1.617086029E+02
1.046213100E+01  1.607286987E+02
1.047687179E+01  1.602776794E+02
1.049161258E+01  1.602678680E+02
1.050635337E+01  1.592575989E+02
1.052109417E+01  1.587917938E+02
1.053583496E+01  1.579903564E+02
1.055057575E+01  1.579768677E+02
1.056531654E+01  1.575189209E+02
1.058005734E+01  1.572197571E+02
1.059479813E+01  1.571288452E+02
1.060953892E+01  1.569891663E+02
1.062427971E+01  1.567297211E+02
1.063902050E+01  1.568877869E+02
1.065376130E+01  1.565864868E+02
1.066850209E+01  1.563156738E+02
1.068324288E+01  1.561787262E+02
1.069798367E+01  1.560134125E+02
1.071272446E+01  1.562301636E+02
1.072746526E+01  1.560393524E+02
1.074220605E+01  1.558828735E+02
1.075694684E+01  1.560358887E+02
1.077168763E+01  1.555725708E+02
1.078642843E+01  1.557550354E+02
1.080116922E+01  1.557670441E+02
1.081591001E+01  1.558695068E+02
1.083065080E+01  1.557005920E+02
1.084539159E+01  1.556499023E+02
1.086013239E+01  1.558563690E+02
1.087487318E+01  1.559645081E+02
1.088961397E+01  1.563796082E+02
1.090435476E+01  1.565539246E+02
1.091909555E+01  1.567045288E+02
1.093383635E+01  1.568079834E+02
1.094857714E+01  1.570596008E+02
1.096331793E+01  1.570222778E+02
1.097805872E+01  1.577189331E+02
1.099279951E+01  1.578761597E+02
1.100754031E+01  1.574757080E+02
1.102228110E+01  1.569891663E+02
1.103702189E+01  1.573212738E+02
1.105176268E+01  1.583946686E+02
1.106650348E+01  1.587793732E+02
1.108124427E+01  1.590821533E+02
1.109598506E+01  1.589483795E+02
1.111072585E+01  1.594862671E+02
1.112546664E+01  1.596992798E+02
1.114020744E+01  1.591609039E+02
1.115494823E+01  1.588834534E+02
1.116968902E+01  1.584402466E+02
1.118442981E+01  1.586066437E+02
1.119917060E+01  1.587660828E+02
1.121391140E+01  1.591410217E+02
1.122865219E+01  1.593774414E+02
1.124339298E+01  1.587285309E+02
1.125813377E+01  1.581563721E+02
1.127287456E+01  1.574837494E+02
1.128761536E+01  1.568234100E+02
1.130235615E+01  1.567223663E+02
1.131709694E+01  1.563544769E+02
1.133183773E+01  1.563652191E+02
1.134657853E+01  1.560801544E+02
1.136131932E+01  1.557241821E+02
1.137606011E+01  1.562082825E+02
1.139080090E+01  1.564473724E+02
1.140554169E+01  1.567436829E+02
1.142028249E+01  1.571455383E+02
1.143502328E+01  1.576188812E+02
1.144976407E+01  1.576245117E+02
1.146450486E+01  1.576961670E+02
1.147924565E+01  1.574922638E+02
1.149398645E+01  1.579178009E+02
1.150872724E+01  1.585953064E+02
1.152346803E+01  1.589604492E+02
1.153820882E+01  1.595814056E+02
1.155294961E+01  1.602058258E+02
1.156769041E+01  1.614371490E+02
1.158243120E+01  1.627736511E+02
1.159717199E+01  1.649709015E+02
1.161191278E+01  1.678876801E+02
1.162665358E+01  1.712929077E+02
1.164139437E+01  1.750627289E+02
1.165613516E+01  1.790909729E+02
1.167087595E+01  1.835769501E+02
1.168561674E+01  1.879589386E+02
1.170035754E+01  1.922166290E+02
1.171509833E+01  1.949275360E+02
1.172983912E+01  1.956857758E+02
1.174457991E+01  1.951915436E+02
1.175932070E+01  1.917913513E+02
1.177406150E+01  1.859411011E+02
1.178880229E+01  1.795511017E+02
1.180354308E+01  1.742984161E+02
1.181828387E+01  1.689720764E+02
1.183302467E+01  1.651368561E+02
1.184776546E+01  1.620157318E+02
1.186250625E+01  1.605402832E+02
1.187724704E+01  1.596894836E+02
1.189198783E+01  1.586501923E+02
1.190672863E+01  1.581675110E+02
1.192146942E+01  1.580506439E+02
1.193621021E+01  1.582422180E+02
1.195095100E+01  1.584318848E+02
1.196569179E+01  1.588121643E+02
1.198043259E+01  1.593272400E+02
1.199517338E+01  1.596302490E+02
1.200991417E+01  1.594874573E+02
1.202465496E+01  1.591291656E+02
1.203939575E+01  1.594384766E+02
1.205413655E+01  1.597695312E+02
1.206887734E+01  1.599407196E+02
1.208361813E+01  1.599563446E+02
1.209835892E+01  1.590129700E+02
1.211309972E+01  1.590698547E+02
1.212784051E+01  1.591001892E+02
1.214258130E+01  1.601916199E+02
1.215732209E+01  1.610854187E+02
1.217206288E+01  1.617202759E+02
1.218680368E+01  1.616138763E+02
1.220154447E+01  1.616894836E+02
1.221628526E+01  1.618913727E+02
1.223102605E+01  1.621374359E+02
1.224576684E+01  1.622350769E+02
1.226050764E+01  1.622625580E+02
1.227524843E+01  1.622307281E+02
1.228998922E+01  1.628692322E+02
1.230473001E+01  1.634900818E+02
1.231947080E+01  1.637829895E+02
1.233421160E+01  1.631792145E+02
1.234895239E+01  1.630652313E+02
1.236369318E+01  1.628547058E+02
1.237843397E+01  1.635227509E+02
1.239317477E+01  1.645197449E+02
1.240791556E+01  1.650505981E+02
1.242265635E+01  1.654660645E+02
1.243739714E+01  1.659084930E+02
1.245213793E+01  1.667591705E+02
1.246687873E+01  1.674412384E+02
1.248161952E+01  1.678727722E+02
1.249636031E+01  1.683369904E+02
1.251110110E+01  1.691095123E+02
1.252584189E+01  1.698232880E+02
1.254058269E+01  1.704308624E+02
1.255532348E+01  1.708289490E+02
1.257006427E+01  1.715104523E+02
1.258480506E+01  1.720580139E+02
1.259954585E+01  1.732106934E+02
1.261428665E+01  1.736096954E+02
1.262902744E+01  1.736870728E+02
1.264376823E+01  1.734018707E+02
1.265850902E+01  1.732480621E+02
1.267324982E+01  1.727463989E+02
1.268799061E+01  1.725125580E+02
1.270273140E+01  1.720332336E+02
1.271747219E+01  1.719338226E+02
1.273221298E+01  1.722658234E+02
1.274695378E+01  1.725581818E+02
1.276169457E+01  1.724845428E+02
1.277643536E+01  1.719609528E+02
1.279117615E+01  1.719140778E+02
1.280591694E+01  1.720433197E+02
1.282065774E+01  1.726568756E+02
1.283539853E+01  1.725443420E+02
1.285013932E+01  1.720722198E+02
1.286488011E+01  1.719913635E+02
1.287962091E+01  1.723508301E+02
1.289436170E+01  1.728179016E+02
1.290910249E+01  1.721109772E+02
1.292384328E+01  1.719484253E+02
1.293858407E+01  1.721710358E+02
1.295332487E+01  1.727770691E+02
1.296806566E+01  1.730026703E+02
1.298280645E+01  1.734133759E+02
1.299754724E+01  1.733222351E+02
1.301228803E+01  1.736000977E+02
1.302702883E+01  1.736317749E+02
1.304176962E+01  1.736538696E+02
1.305651041E+01  1.742562408E+02
1.307125120E+01  1.752319031E+02
1.308599199E+01  1.768296204E+02
1.310073279E+01  1.782820129E+02
1.311547358E+01  1.798605194E+02
1.313021437E+01  1.806548920E+02
1.314495516E+01  1.834960785E+02
1.315969596E+01  1.861193542E+02
1.317443675E+01  1.904007111E+02
1.318917754E+01  1.944813843E+02
1.320391833E+01  1.991227722E+02
1.321865912E+01  2.042490540E+02
1.323339992E+01  2.084986115E+02
1.324814071E+01  2.131858826E+02
1.326288150E+01  2.167959747E+02
1.327762229E+01  2.186633148E+02
1.329236308E+01  2.183675385E+02
1.330710388E+01  2.160592957E+02
1.332184467E+01  2.119744110E+02
1.333658546E+01  2.069739685E+02
1.335132625E+01  2.014504852E+02
1.336606704E+01  1.964991302E+02
1.338080784E+01  1.916559296E+02
1.339554863E+01  1.873763885E+02
1.341028942E+01  1.840075073E+02
1.342503021E+01  1.808694611E+02
1.343977101E+01  1.784976196E+02
1.345451180E+01  1.770792236E+02
1.346925259E+01  1.760778351E+02
1.348399338E+01  1.753388367E+02
1.349873417E+01  1.747766113E+02
1.351347497E+01  1.744297485E+02
1.352821576E+01  1.743738098E+02
1.354295655E+01  1.746063385E+02
1.355769734E+01  1.751050110E+02
1.357243813E+01  1.762628021E+02
1.358717893E+01  1.773300629E+02
1.360191972E+01  1.782948456E+02
1.361666051E+01  1.793962860E+02
1.363140130E+01  1.801213379E+02
1.364614209E+01  1.816033936E+02
1.366088289E+01  1.834941254E+02
1.367562368E+01  1.843260193E+02
1.369036447E+01  1.842529297E+02
1.370510526E+01  1.833828888E+02
1.371984606E+01  1.825325012E+02
1.373458685E+01  1.809586945E+02
1.374932764E+01  1.794019470E+02
1.376406843E+01  1.779756470E+02
1.377880922E+01  1.771569366E+02
1.379355002E+01  1.762803650E+02
1.380829081E+01  1.762251129E+02
1.382303160E+01  1.762353973E+02
1.383777239E+01  1.758987732E+02
1.385251318E+01  1.755399475E+02
1.386725398E+01  1.753532104E+02
1.388199477E+01  1.760587769E+02
1.389673556E+01  1.761510925E+02
1.391147635E+01  1.760385132E+02
1.392621715E+01  1.761400909E+02
1.394095794E+01  1.767468872E+02
1.395569873E+01  1.771208801E+02
1.397043952E+01  1.773142395E+02
1.398518031E+01  1.777550964E+02
1.399992111E+01  1.787196198E+02
1.401466190E+01  1.799855347E+02
1.402940269E+01  1.811484375E+02
1.404414348E+01  1.818651886E+02
1.405888427E+01  1.830671387E+02
1.407362507E+01  1.839397430E+02
1.408836586E+01  1.856640015E+02
1.410310665E+01  1.881471558E+02
1.411784744E+01  1.908128967E+02
1.413258823E+01  1.934295807E+02
1.414732903E+01  1.965325470E+02
1.416206982E+01  2.008920135E+02
1.417681061E+01  2.055555420E+02
1.419155140E+01  2.108668365E+02
1.420629220E+01  2.168740082E+02
1.422103299E+01  2.216206360E+02
1.423577378E+01  2.252133484E+02
1.425051457E+01  2.259141235E+02
1.426525536E+01  2.242084808E+02
1.427999616E+01  2.202494049E+02
1.429473695E+01  2.148324890E+02
1.430947774E+01  2.104124908E+02
1.432421853E+01  2.076151276E+02
1.433895932E+01  2.041141968E+02
1.435370012E+01  1.998624878E+02
1.436844091E+01  1.955616760E+02
1.438318170E+01  1.918050537E+02
1.439792249E+01  1.881272278E+02
1.441266328E+01  1.853889771E+02
1.442740408E+01  1.835011444E+02
1.444214487E+01  1.821514893E+02
1.445688566E+01  1.808447418E+02
1.447162645E+01  1.800199585E+02
1.448636725E+01  1.789828033E+02
1.450110804E+01  1.778113403E+02
1.451584883E+01  1.778459625E+02
1.453058962E+01  1.776291809E+02
1.454533041E+01  1.774545288E+02
1.456007121E+01  1.764751434E+02
1.457481200E+01  1.763983002E+02
1.458955279E+01  1.766789551E+02
1.460429358E+01  1.769880066E+02
1.461903437E+01  1.771568909E+02
1.463377517E+01  1.775061035E+02
1.464851596E+01  1.781427155E+02
1.466325675E+01  1.788473663E+02
1.467799754E+01  1.787392578E+02
1.469273833E+01  1.788958282E+02
1.470747913E+01  1.787752228E+02
1.472221992E+01  1.793431549E+02
1.473696071E+01  1.797825012E+02
1.475170150E+01  1.807560730E+02
1.476644230E+01  1.815597839E+02
1.478118309E+01  1.824592285E+02
1.479592388E+01  1.823764343E+02
1.481066467E+01  1.812245789E+02
1.482540546E+01  1.799788818E+02
1.484014626E+01  1.800259705E+02
1.485488705E+01  1.794956055E+02
1.486962784E+01  1.783782959E+02
1.488436863E+01  1.773052979E+02
1.489910942E+01  1.769338989E+02
1.491385022E+01  1.767448730E+02
1.492859101E+01  1.762175598E+02
1.494333180E+01  1.753982086E+02
1.495807259E+01  1.747815247E+02
1.497281339E+01  1.744682617E+02
1.498755418E+01  1.747514496E+02
1.500229497E+01  1.750469513E+02
1.501703576E+01  1.747974091E+02
1.503177655E+01  1.747835693E+02
1.504651735E+01  1.745829315E+02
1.506125814E+01  1.746431427E+02
1.507599893E+01  1.745964355E+02
1.509073972E+01  1.750941925E+02
1.510548051E+01  1.750877533E+02
1.512022131E+01  1.756135712E+02
1.513496210E+01  1.756222992E+02
1.514970289E+01  1.758506775E+02
1.516444368E+01  1.756503601E+02
1.517918447E+01  1.756126404E+02
1.519392527E+01  1.760003967E+02
1.520866606E+01  1.760013275E+02
1.522340685E+01  1.757675476E+02
1.523814764E+01  1.755886078E+02
1.525288844E+01  1.755887909E+02
1.526762923E+01  1.753774109E+02
1.528237002E+01  1.745423584E+02
1.529711081E+01  1.743928375E+02
1.531185160E+01  1.740263824E+02
1.532659240E+01  1.739215240E+02
1.534133319E+01  1.737097473E+02
1.535607398E+01  1.735896454E+02
1.537081477E+01  1.731791077E+02
1.538555556E+01  1.727842712E+02
1.540029636E+01  1.722758179E+02
1.541503715E+01  1.720580292E+02
1.542977794E+01  1.718931427E+02
1.544451873E+01  1.718639526E+02
1.545925952E+01  1.717801514E+02
1.547400032E+01  1.724475403E+02
1.548874111E+01  1.728946991E+02
1.550348190E+01  1.729742889E+02
1.551822269E+01  1.730255737E+02
1.553296349E+01  1.724872589E+02
1.554770428E+01  1.724426727E+02
1.556244507E+01  1.721952362E+02
1.557718586E+01  1.725217590E+02
1.559192665E+01  1.726635437E+02
1.560666745E+01  1.731643372E+02
1.562140824E+01  1.734235687E+02
1.563614903E+01  1.738984222E+02
1.565088982E+01  1.739182587E+02
1.566563061E+01  1.736731567E+02
1.568037141E+01  1.733914032E+02
1.569511220E+01  1.735923004E+02
1.570985299E+01  1.734724579E+02
1.572459378E+01  1.728972931E+02
1.573933457E+01  1.722411346E+02
1.575407537E+01  1.719997864E+02
1.576881616E+01  1.726382446E+02
1.578355695E+01  1.734358063E+02
1.579829774E+01  1.741005249E+02
1.581303854E+01  1.739358978E+02
1.582777933E+01  1.735096436E+02
1.584252012E+01  1.729271545E+02
1.585726091E+01  1.725944061E+02
1.587200170E+01  1.728994598E+02
1.588674250E+01  1.734545441E+02
1.590148329E+01  1.739182434E+02
1.591622408E+01  1.737619324E+02
1.593096487E+01  1.733660278E+02
1.594570566E+01  1.735925293E+02
1.596044646E+01  1.740118561E+02
1.597518725E+01  1.743037720E+02
1.598992804E+01  1.743360748E+02
1.600466883E+01  1.742537689E+02
1.601940963E+01  1.745927277E+02
1.603415042E+01  1.745002289E+02
1.604889121E+01  1.750545654E+02
1.606363200E+01  1.752432556E+02
1.607837279E+01  1.757743988E+02
1.609311359E+01  1.752462463E+02
1.610785438E+01  1.750070801E+02
1.612259517E+01  1.750423889E+02
1.613733596E+01  1.750651855E+02
1.615207675E+01  1.757243652E+02
1.616681755E+01  1.762101135E+02
1.618155834E+01  1.760580292E+02
1.619629913E+01  1.759216614E+02
1.621103992E+01  1.761600037E+02
1.622578071E+01  1.765501556E+02
1.624052151E+01  1.766495667E+02
1.625526230E+01  1.770068512E+02
1.627000309E+01  1.773341675E+02
1.628474388E+01  1.774440155E+02
1.629948468E+01  1.772519073E+02
1.631422547E+01  1.774130707E+02
1.632896626E+01  1.774484100E+02
1.634370705E+01  1.782091217E+02
1.635844784E+01  1.787157440E+02
1.637318864E+01  1.793035278E+02
1.638792943E+01  1.797165985E+02
1.640267022E+01  1.804144440E+02
1.641741101E+01  1.810239563E+02
1.643215180E+01  1.815610657E+02
1.644689260E+01  1.817730560E+02
1.646163339E+01  1.822092896E+02
1.647637418E+01  1.832432709E+02
1.649111497E+01  1.845367126E+02
1.650585576E+01  1.852073059E+02
1.652059656E+01  1.858140411E+02
1.653533735E+01  1.867693024E+02
1.655007814E+01  1.873085480E+02
1.656481893E+01  1.874798584E+02
1.657955973E+01  1.869244080E+02
1.659430052E+01  1.865190887E+02
1.660904131E+01  1.850262604E+02
1.662378210E+01  1.831913605E+02
1.663852289E+01  1.817175751E+02
1.665326369E+01  1.806613007E+02
1.666800448E+01  1.800730133E+02
1.668274527E+01  1.800658722E+02
1.669748606E+01  1.799338531E+02
1.671222685E+01  1.795839386E+02
1.672696765E+01  1.791882172E+02
1.674170844E+01  1.787965851E+02
1.675644923E+01  1.787677612E+02
1.677119002E+01  1.785532684E+02
1.678593081E+01  1.788188019E+02
1.680067161E+01  1.785918274E+02
1.681541240E+01  1.782703857E+02
1.683015319E+01  1.783397369E+02
1.684489398E+01  1.782734375E+02
1.685963478E+01  1.780030823E+02
1.687437557E+01  1.776239929E+02
1.688911636E+01  1.780905457E+02
1.690385715E+01  1.783979492E+02
1.691859794E+01  1.786741943E+02
1.693333874E+01  1.785630341E+02
1.694807953E+01  1.789342041E+02
1.696282032E+01  1.792156830E+02
1.697756111E+01  1.795481873E+02
1.699230190E+01  1.796172791E+02
1.700704270E+01  1.802064056E+02
1.702178349E+01  1.805988159E+02
1.703652428E+01  1.806442108E+02
1.705126507E+01  1.807327271E+02
1.706600587E+01  1.808641968E+02
1.708074666E+01  1.809155884E+02
1.709548745E+01  1.809498749E+02
1.711022824E+01  1.817088165E+02
1.712496903E+01  1.832021484E+02
1.713970983E+01  1.835013580E+02
1.715445062E+01  1.834993134E+02
1.716919141E+01  1.836450195E+02
1.718393220E+01  1.847612915E+02
1.719867299E+01  1.850452576E+02
1.721341379E+01  1.851593628E+02
1.722815458E+01  1.847480774E+02
1.724289537E+01  1.857846680E+02
1.725763616E+01  1.859276886E+02
1.727237695E+01  1.859906769E+02
1.728711775E+01  1.867319946E+02
1.730185854E+01  1.866699982E+02
1.731659933E+01  1.863361816E+02
1.733134012E+01  1.857097015E+02
1.734608092E+01  1.857373810E+02
1.736082171E+01  1.860824127E+02
1.737556250E+01  1.866636353E+02
1.739030329E+01  1.874714661E+02
1.740504408E+01  1.886552277E+02
1.741978488E+01  1.893670502E+02
1.743452567E+01  1.897493591E+02
1.744926646E+01  1.902121887E+02
1.746400725E+01  1.907591705E+02
1.747874804E+01  1.910181732E+02
1.749348884E+01  1.906172028E+02
1.750822963E+01  1.891191406E+02
1.752297042E+01  1.874130707E+02
1.753771121E+01  1.860053864E+02
1.755245200E+01  1.855756683E+02
1.756719280E+01  1.848636169E+02
1.758193359E+01  1.842388763E+02
1.759667438E+01  1.833713379E+02
1.761141517E+01  1.829485168E+02
1.762615597E+01  1.825578766E+02
1.764089676E+01  1.823111725E+02
1.765563755E+01  1.819482269E+02
1.767037834E+01  1.821911469E+02
1.768511913E+01  1.823181763E+02
1.769985993E+01  1.828734589E+02
1.771460072E+01  1.825913849E+02
1.772934151E+01  1.815975647E+02
1.774408230E+01  1.813904572E+02
1.775882309E+01  1.820191040E+02
1.777356389E+01  1.816441040E+02
1.778830468E+01  1.810957489E+02
1.780304547E+01  1.806543274E+02
1.781778626E+01  1.810128479E+02
1.783252705E+01  1.811060638E+02
1.784726785E+01  1.811110992E+02
1.786200864E+01  1.813526459E+02
1.787674943E+01  1.815046082E+02
1.789149022E+01  1.813834534E+02
1.790623102E+01  1.815182953E+02
1.792097181E+01  1.818328552E+02
1.793571260E+01  1.819170380E+02
1.795045339E+01  1.817410889E+02
1.796519418E+01  1.821023102E+02
1.797993498E+01  1.822633209E+02
1.799467577E+01  1.824764252E+02
1.800941656E+01  1.821612091E+02
1.802415735E+01  1.814102936E+02
1.803889814E+01  1.811556396E+02
1.805363894E+01  1.809055939E+02
1.806837973E+01  1.811353912E+02
1.808312052E+01  1.808729858E+02
1.809786131E+01  1.808623047E+02
1.811260211E+01  1.810593567E+02
1.812734290E+01  1.816431274E+02
1.814208369E+01  1.813801880E+02
1.815682448E+01  1.807341614E+02
1.817156527E+01  1.805538483E+02
1.818630607E+01  1.805357666E+02
1.820104686E+01  1.807649841E+02
1.821578765E+01  1.800962219E+02
1.823052844E+01  1.799009705E+02
1.824526923E+01  1.794420013E+02
1.826001003E+01  1.796656342E+02
1.827475082E+01  1.793167114E+02
1.828949161E+01  1.790664215E+02
1.830423240E+01  1.785611725E+02
1.831897319E+01  1.787314758E+02
1.833371399E+01  1.787338257E+02
1.834845478E+01  1.785571747E+02
1.836319557E+01  1.784234772E+02
1.837793636E+01  1.784702454E+02
1.839267716E+01  1.783917084E+02
1.840741795E+01  1.781151581E+02
1.842215874E+01  1.779785156E+02
1.843689953E+01  1.782059631E+02
1.845164032E+01  1.788777161E+02
1.846638112E+01  1.787524567E+02
1.848112191E+01  1.786218872E+02
1.849586270E+01  1.781543732E+02
1.851060349E+01  1.780474396E+02
1.852534428E+01  1.780274811E+02
1.854008508E+01  1.778637695E+02
1.855482587E+01  1.778473969E+02
1.856956666E+01  1.769279175E+02
1.858430745E+01  1.768757935E+02
1.859904824E+01  1.771290741E+02
1.861378904E+01  1.774404449E+02
1.862852983E+01  1.776496429E+02
1.864327062E+01  1.776902008E+02
1.865801141E+01  1.776052704E+02
1.867275221E+01  1.774045410E+02
1.868749300E+01  1.771673584E+02
1.870223379E+01  1.766511993E+02
1.871697458E+01  1.767593536E+02
1.873171537E+01  1.770807495E+02
1.874645617E+01  1.770507507E+02
1.876119696E+01  1.769835052E+02
1.877593775E+01  1.770636444E+02
1.879067854E+01  1.770428772E+02
1.880541933E+01  1.769504852E+02
1.882016013E+01  1.771276093E+02
1.883490092E+01  1.773433533E+02
1.884964171E+01  1.775964966E+02
1.886438250E+01  1.771262970E+02
1.887912329E+01  1.774064331E+02
1.889386409E+01  1.772567902E+02
1.890860488E+01  1.770337982E+02
1.892334567E+01  1.767472382E+02
1.893808646E+01  1.768437500E+02
1.895282726E+01  1.765288086E+02
1.896756805E+01  1.765662079E+02
1.898230884E+01  1.766170502E+02
1.899704963E+01  1.769180908E+02
1.901179042E+01  1.774541168E+02
1.902653122E+01  1.774098206E+02
1.904127201E+01  1.776090240E+02
1.905601280E+01  1.766955261E+02
1.907075359E+01  1.762772675E+02
1.908549438E+01  1.768257294E+02
1.910023518E+01  1.773584137E+02
1.911497597E+01  1.778062286E+02
1.912971676E+01  1.777195129E+02
1.914445755E+01  1.772354736E+02
1.915919834E+01  1.771338196E+02
1.917393914E+01  1.778802948E+02
1.918867993E+01  1.784489746E+02
1.920342072E+01  1.779018402E+02
1.921816151E+01  1.775207062E+02
1.923290231E+01  1.776267090E+02
1.924764310E+01  1.777583923E+02
1.926238389E+01  1.776325226E+02
1.927712468E+01  1.771488495E+02
1.929186547E+01  1.772294922E+02
1.930660627E+01  1.766063232E+02
1.932134706E+01  1.764918365E+02
1.933608785E+01  1.760231934E+02
1.935082864E+01  1.763190765E+02
1.936556943E+01  1.763266754E+02
1.938031023E+01  1.765205994E+02
1.939505102E+01  1.765001526E+02
1.940979181E+01  1.764386597E+02
1.942453260E+01  1.770513153E+02
1.943927340E+01  1.772040253E+02
1.945401419E+01  1.774585571E+02
1.946875498E+01  1.778919067E+02
1.948349577E+01  1.783765717E+02
1.949823656E+01  1.792585754E+02
1.951297736E+01  1.793210754E+02
1.952771815E+01  1.795493774E+02
1.954245894E+01  1.798127289E+02
1.955719973E+01  1.804530334E+02
1.957194052E+01  1.803926697E+02
1.958668132E+01  1.803256073E+02
1.960142211E+01  1.800970764E+02
1.961616290E+01  1.800255432E+02
1.963090369E+01  1.798663177E+02
1.964564448E+01  1.799012146E+02
1.966038528E+01  1.806377106E+02
1.967512607E+01  1.810453644E+02
1.968986686E+01  1.811714935E+02
1.970460765E+01  1.812179260E+02
1.971934845E+01  1.813110657E+02
1.973408924E+01  1.808493347E+02
1.974883003E+01  1.806941223E+02
1.976357082E+01  1.799380493E+02
1.977831161E+01  1.796301422E+02
1.979305241E+01  1.786746521E+02
1.980779320E+01  1.789467621E+02
1.982253399E+01  1.785222168E+02
1.983727478E+01  1.785569000E+02
1.985201557E+01  1.779860840E+02
1.986675637E+01  1.779661102E+02
1.988149716E+01  1.774045563E+02
1.989623795E+01  1.775335083E+02
1.991097874E+01  1.776313782E+02
1.992571953E+01  1.773190155E+02
1.994046033E+01  1.772652893E+02
1.995520112E+01  1.777274323E+02
1.996994191E+01  1.783472748E+02
1.998468270E+01  1.788759766E+02
1.999942350E+01  1.788843994E+02
2.001416429E+01  1.791481323E+02
2.002890508E+01  1.786937561E+02
2.004364587E+01  1.790230255E+02
2.005838666E+01  1.792012634E+02
2.007312746E+01  1.796652985E+02
2.008786825E+01  1.804816742E+02
2.010260904E+01  1.812377625E+02
2.011734983E+01  1.818918762E+02
2.013209062E+01  1.827657471E+02
2.014683142E+01  1.835387726E+02
2.016157221E+01  1.844408569E+02
2.017631300E+01  1.850716248E+02
2.019105379E+01  1.860982666E+02
2.020579458E+01  1.872858429E+02
2.022053538E+01  1.884780579E+02
2.023527617E+01  1.896752777E+02
2.025001696E+01  1.914226837E+02
2.026475775E+01  1.938626709E+02
2.027949855E+01  1.957676849E+02
2.029423934E+01  1.975277710E+02
2.030898013E+01  1.979574585E+02
2.032372092E+01  1.982136078E+02
2.033846171E+01  1.976281738E+02
2.035320251E+01  1.967429810E+02
2.036794330E+01  1.952194824E+02
2.038268409E+01  1.928968964E+02
2.039742488E+01  1.903302765E+02
2.041216567E+01  1.879738312E+02
2.042690647E+01  1.861161194E+02
2.044164726E+01  1.848012695E+02
2.045638805E+01  1.829458160E+02
2.047112884E+01  1.812581787E+02
2.048586964E+01  1.800706024E+02
2.050061043E+01  1.792532196E+02
2.051535122E+01  1.788490601E+02
2.053009201E+01  1.780520477E+02
2.054483280E+01  1.779974670E+02
2.055957360E+01  1.779597626E+02
2.057431439E+01  1.778117981E+02
2.058905518E+01  1.774810181E+02
2.060379597E+01  1.776928864E+02
2.061853676E+01  1.770205688E+02
2.063327756E+01  1.765786438E+02
2.064801835E+01  1.767884216E+02
2.066275914E+01  1.772070465E+02
2.067749993E+01  1.774283905E+02
2.069224072E+01  1.775941772E+02
2.070698152E+01  1.773850708E+02
2.072172231E+01  1.778304901E+02
2.073646310E+01  1.775685730E+02
2.075120389E+01  1.769375916E+02
2.076594469E+01  1.763067169E+02
2.078068548E+01  1.768763733E+02
2.079542627E+01  1.770224762E+02
2.081016706E+01  1.770259552E+02
2.082490785E+01  1.773345795E+02
2.083964865E+01  1.780772552E+02
2.085438944E+01  1.786106720E+02
2.086913023E+01  1.783437653E+02
2.088387102E+01  1.783374939E+02
2.089861181E+01  1.785420532E+02
2.091335261E+01  1.790392609E+02
2.092809340E+01  1.794361267E+02
2.094283419E+01  1.795170441E+02
2.095757498E+01  1.800943604E+02
2.097231577E+01  1.799240570E+02
2.098705657E+01  1.794149323E+02
2.100179736E+01  1.785969696E+02
2.101653815E+01  1.787666321E+02
2.103127894E+01  1.789942780E+02
2.104601974E+01  1.788749847E+02
2.106076053E+01  1.795666199E+02
2.107550132E+01  1.792611694E+02
2.109024211E+01  1.788217773E+02
2.110498290E+01  1.780249786E+02
2.111972370E+01  1.768217621E+02
2.113446449E+01  1.767274017E+02
2.114920528E+01  1.768507080E+02
2.116394607E+01  1.768793793E+02
2.117868686E+01  1.770942993E+02
2.119342766E+01  1.773693237E+02
2.120816845E+01  1.776150818E+02
2.122290924E+01  1.771490326E+02
2.123765003E+01  1.767994995E+02
2.125239082E+01  1.768457031E+02
2.126713162E+01  1.769902954E+02
2.128187241E+01  1.774472046E+02
2.129661320E+01  1.775820160E+02
2.131135399E+01  1.779026947E+02
2.132609479E+01  1.778479004E+02
2.134083558E+01  1.781110535E+02
2.135557637E+01  1.787154846E+02
2.137031716E+01  1.785166321E+02
2.138505795E+01  1.778363190E+02
2.139979875E+01  1.775181122E+02
2.141453954E+01  1.775358582E+02
2.142928033E+01  1.779016876E+02
2.144402112E+01  1.783139038E+02
2.145876191E+01  1.789989471E+02
2.147350271E+01  1.795253296E+02
2.148824350E+01  1.795267792E+02
2.150298429E+01  1.795992584E+02
2.151772508E+01  1.797480164E+02
2.153246588E+01  1.798821716E+02
2.154720667E+01  1.795559235E+02
2.156194746E+01  1.793823395E+02
2.157668825E+01  1.799077454E+02
2.159142904E+01  1.807662506E+02
2.160616984E+01  1.809887390E+02
2.162091063E+01  1.806373749E+02
2.163565142E+01  1.803198853E+02
2.165039221E+01  1.809967499E+02
2.166513300E+01  1.815836029E+02
2.167987380E+01  1.817131958E+02
2.169461459E+01  1.816832886E+02
2.170935538E+01  1.822385864E+02
2.172409617E+01  1.835112000E+02
2.173883696E+01  1.844632721E+02
2.175357776E+01  1.846550598E+02
2.176831855E+01  1.846514587E+02
2.178305934E+01  1.846411591E+02
2.179780013E+01  1.851220398E+02
2.181254093E+01  1.856114197E+02
2.182728172E+01  1.862744904E+02
2.184202251E+01  1.870843811E+02
2.185676330E+01  1.881500244E+02
2.187150409E+01  1.890694580E+02
2.188624489E+01  1.890913239E+02
2.190098568E+01  1.888708038E+02
2.191572647E+01  1.883139801E+02
2.193046726E+01  1.877175903E+02
2.194520805E+01  1.876725769E+02
2.195994885E+01  1.865014343E+02
2.197468964E+01  1.850798798E+02
2.198943043E+01  1.841964874E+02
2.200417122E+01  1.841175232E+02
2.201891201E+01  1.844331818E+02
2.203365281E+01  1.837044830E+02
2.204839360E+01  1.826361694E+02
2.206313439E+01  1.820130615E+02
2.207787518E+01  1.816517792E+02
2.209261598E+01  1.809141083E+02
2.210735677E+01  1.810814056E+02
2.212209756E+01  1.815783539E+02
2.213683835E+01  1.811888275E+02
2.215157914E+01  1.807878418E+02
2.216631994E+01  1.807559357E+02
2.218106073E+01  1.814717255E+02
2.219580152E+01  1.815895844E+02
2.221054231E+01  1.814148407E+02
2.222528310E+01  1.820223846E+02
2.224002390E+01  1.828913574E+02
2.225476469E+01  1.839679413E+02
2.226950548E+01  1.837383575E+02
2.228424627E+01  1.832847443E+02
2.229898706E+01  1.842963257E+02
2.231372786E+01  1.851697235E+02
2.232846865E+01  1.862306976E+02
2.234320944E+01  1.861900940E+02
2.235795023E+01  1.865462341E+02
2.237269103E+01  1.865688171E+02
2.238743182E+01  1.873229065E+02
2.240217261E+01  1.876200714E+02
2.241691340E+01  1.884277954E+02
2.243165419E+01  1.887313080E+02
2.244639499E+01  1.891179962E+02
2.246113578E+01  1.896115112E+02
2.247587657E+01  1.907614441E+02
2.249061736E+01  1.916186676E+02
2.250535815E+01  1.924693909E+02
2.252009895E+01  1.936581573E+02
2.253483974E+01  1.944034424E+02
2.254958053E+01  1.953765564E+02
2.256432132E+01  1.962830811E+02
2.257906212E+01  1.967155914E+02
2.259380291E+01  1.974850922E+02
2.260854370E+01  1.986060944E+02
2.262328449E+01  1.993075867E+02
2.263802528E+01  1.991436768E+02
2.265276608E+01  1.977558136E+02
2.266750687E+01  1.961277771E+02
2.268224766E+01  1.943534088E+02
2.269698845E+01  1.927255402E+02
2.271172924E+01  1.907947998E+02
2.272647004E+01  1.894840393E+02
2.274121083E+01  1.884834747E+02
2.275595162E+01  1.882571564E+02
2.277069241E+01  1.874282684E+02
2.278543320E+01  1.865844574E+02
2.280017400E+01  1.864089355E+02
2.281491479E+01  1.862743225E+02
2.282965558E+01  1.854030151E+02
2.284439637E+01  1.849379730E+02
2.285913717E+01  1.850138702E+02
2.287387796E+01  1.846421204E+02
2.288861875E+01  1.841144104E+02
2.290335954E+01  1.847369843E+02
2.291810033E+01  1.844940186E+02
2.293284113E+01  1.843118896E+02
2.294758192E+01  1.840845642E+02
2.296232271E+01  1.841788025E+02
2.297706350E+01  1.843142395E+02
2.299180429E+01  1.841797180E+02
2.300654509E+01  1.844976044E+02
2.302128588E+01  1.849003754E+02
2.303602667E+01  1.853578339E+02
2.305076746E+01  1.846391754E+02
2.306550825E+01  1.842199097E+02
2.308024905E+01  1.838823547E+02
2.309498984E+01  1.841588287E+02
2.310973063E+01  1.850456085E+02
2.312447142E+01  1.853517761E+02
2.313921222E+01  1.851810303E+02
2.315395301E+01  1.847708740E+02
2.316869380E+01  1.847477875E+02
2.318343459E+01  1.844788513E+02
2.319817538E+01  1.845312042E+02
2.321291618E+01  1.845753784E+02
2.322765697E+01  1.840761566E+02
2.324239776E+01  1.840638275E+02
2.325713855E+01  1.841753082E+02
2.327187934E+01  1.835921631E+02
2.328662014E+01  1.836943817E+02
2.330136093E+01  1.835583801E+02
2.331610172E+01  1.834667053E+02
2.333084251E+01  1.832298126E+02
2.334558330E+01  1.837008667E+02
2.336032410E+01  1.844474182E+02
2.337506489E+01  1.843066101E+02
2.338980568E+01  1.838848724E+02
2.340454647E+01  1.841912079E+02
2.341928727E+01  1.843880768E+02
2.343402806E+01  1.846021118E+02
2.344876885E+01  1.847449646E+02
2.346350964E+01  1.855516052E+02
2.347825043E+01  1.862686005E+02
2.349299123E+01  1.859988403E+02
2.350773202E+01  1.857984924E+02
2.352247281E+01  1.844913177E+02
2.353721360E+01  1.842208710E+02
2.355195439E+01  1.854168243E+02
2.356669519E+01  1.854554749E+02
2.358143598E+01  1.849150543E+02
2.359617677E+01  1.842143555E+02
2.361091756E+01  1.844164886E+02
2.362565836E+01  1.848352509E+02
2.364039915E+01  1.844243164E+02
2.365513994E+01  1.840704193E+02
2.366988073E+01  1.833668365E+02
2.368462152E+01  1.830103607E+02
2.369936232E+01  1.835498352E+02
2.371410311E+01  1.842852936E+02
2.372884390E+01  1.843208771E+02
2.374358469E+01  1.838676300E+02
2.375832548E+01  1.838973083E+02
2.377306628E+01  1.847133179E+02
2.378780707E+01  1.855960693E+02
2.380254786E+01  1.862556610E+02
2.381728865E+01  1.868331299E+02
2.383202944E+01  1.876793976E+02
2.384677024E+01  1.879920959E+02
2.386151103E+01  1.886285400E+02
2.387625182E+01  1.892261963E+02
2.389099261E+01  1.899800110E+02
2.390573341E+01  1.901023560E+02
2.392047420E+01  1.899624939E+02
2.393521499E+01  1.901645050E+02
2.394995578E+01  1.904757233E+02
2.396469657E+01  1.912645569E+02
2.397943737E+01  1.914276276E+02
2.399417816E+01  1.900680389E+02
2.400891895E+01  1.889839935E+02
2.402365974E+01  1.884451447E+02
2.403840053E+01  1.878594818E+02
2.405314133E+01  1.874983063E+02
2.406788212E+01  1.878018951E+02
2.408262291E+01  1.881019897E+02
2.409736370E+01  1.882847595E+02
2.411210449E+01  1.884206238E+02
2.412684529E+01  1.884091034E+02
2.414158608E+01  1.886916962E+02
2.415632687E+01  1.893147125E+02
2.417106766E+01  1.895529633E+02
2.418580846E+01  1.905130310E+02
2.420054925E+01  1.909111633E+02
2.421529004E+01  1.919163513E+02
2.423003083E+01  1.933385468E+02
2.424477162E+01  1.941617432E+02
2.425951242E+01  1.947793427E+02
2.427425321E+01  1.956511688E+02
2.428899400E+01  1.967945099E+02
2.430373479E+01  1.972861176E+02
2.431847558E+01  1.979765015E+02
2.433321638E+01  1.978408508E+02
2.434795717E+01  1.981065521E+02
2.436269796E+01  1.983632355E+02
2.437743875E+01  1.987460785E+02
2.439217954E+01  1.981355896E+02
2.440692034E+01  1.970672302E+02
2.442166113E+01  1.959434357E+02
2.443640192E+01  1.946968994E+02
2.445114271E+01  1.940831909E+02
2.446588351E+01  1.937474365E+02
2.448062430E+01  1.935087433E+02
2.449536509E+01  1.924860840E+02
2.451010588E+01  1.921290436E+02
2.452484667E+01  1.917407837E+02
2.453958747E+01  1.908566437E+02
2.455432826E+01  1.904182129E+02
2.456906905E+01  1.910516968E+02
2.458380984E+01  1.916971893E+02
2.459855063E+01  1.921122742E+02
2.461329143E+01  1.915228729E+02
2.462803222E+01  1.913399353E+02
2.464277301E+01  1.917174530E+02
2.465751380E+01  1.924069977E+02
2.467225460E+01  1.928870697E+02
2.468699539E+01  1.937890930E+02
2.470173618E+01  1.946956329E+02
2.471647697E+01  1.943770752E+02
2.473121776E+01  1.944995117E+02
2.474595856E+01  1.965513153E+02
2.476069935E+01  1.984190674E+02
2.477544014E+01  1.993015900E+02
2.479018093E+01  1.988255157E+02
2.480492172E+01  1.973849792E+02
2.481966252E+01  1.967833862E+02
2.483440331E+01  1.958687286E+02
2.484914410E+01  1.947386322E+02
2.486388489E+01  1.935434723E+02
2.487862568E+01  1.925707245E+02
2.489336648E+01  1.924706879E+02
2.490810727E+01  1.920383148E+02
2.492284806E+01  1.915118561E+02
2.493758885E+01  1.910263062E+02
2.495232965E+01  1.905558777E+02
2.496707044E+01  1.899345245E+02
2.498181123E+01  1.903195038E+02
2.499655202E+01  1.905119934E+02
2.501129281E+01  1.908233795E+02
2.502603361E+01  1.912096252E+02
2.504077440E+01  1.913558350E+02
2.505551519E+01  1.911533356E+02
2.507025598E+01  1.909742584E+02
2.508499677E+01  1.909394379E+02
2.509973757E+01  1.905982513E+02
2.511447836E+01  1.904092407E+02
2.512921915E+01  1.908122559E+02
2.514395994E+01  1.903947144E+02
2.515870073E+01  1.899364624E+02
2.517344153E+01  1.898250427E+02
2.518818232E+01  1.892528839E+02
2.520292311E+01  1.890860748E+02
2.521766390E+01  1.887731323E+02
2.523240470E+01  1.888226929E+02
2.524714549E+01  1.880151062E+02
2.526188628E+01  1.876939545E+02
2.527662707E+01  1.875855255E+02
2.529136786E+01  1.876064606E+02
2.530610866E+01  1.875226135E+02
2.532084945E+01  1.876864929E+02
2.533559024E+01  1.875205841E+02
2.535033103E+01  1.880667877E+02
2.536507182E+01  1.880140228E+02
2.537981262E+01  1.882140503E+02
2.539455341E+01  1.883510437E+02
2.540929420E+01  1.884319000E+02
2.542403499E+01  1.879576874E+02
2.543877578E+01  1.885934753E+02
2.545351658E+01  1.895253143E+02
2.546825737E+01  1.895252991E+02
2.548299816E+01  1.886045074E+02
2.549773895E+01  1.878179474E+02
2.551247975E+01  1.878958435E+02
2.552722054E+01  1.880444641E+02
2.554196133E+01  1.876787720E+02
2.555670212E+01  1.869385986E+02
2.557144291E+01  1.864885254E+02
2.558618371E+01  1.864060059E+02
2.560092450E+01  1.859576263E+02
2.561566529E+01  1.857882996E+02
2.563040608E+01  1.860772705E+02
2.564514687E+01  1.863337250E+02
2.565988767E+01  1.856844788E+02
2.567462846E+01  1.856646118E+02
2.568936925E+01  1.863111267E+02
2.570411004E+01  1.863419495E+02
2.571885084E+01  1.857691803E+02
2.573359163E+01  1.852975159E+02
2.574833242E+01  1.860897675E+02
2.576307321E+01  1.859579620E+02
2.577781400E+01  1.855871887E+02
2.579255480E+01  1.849020386E+02
2.580729559E+01  1.842033691E+02
2.582203638E+01  1.838501740E+02
2.583677717E+01  1.836314240E+02
2.585151796E+01  1.834486694E+02
2.586625876E+01  1.837142334E+02
2.588099955E+01  1.838958130E+02
2.589574034E+01  1.835238037E+02
2.591048113E+01  1.837993622E+02
2.592522192E+01  1.831979523E+02
2.593996272E+01  1.829827118E+02
2.595470351E+01  1.831796570E+02
2.596944430E+01  1.835601807E+02
2.598418509E+01  1.835451202E+02
2.599892589E+01  1.829300385E+02
2.601366668E+01  1.825205078E+02
2.602840747E+01  1.825628510E+02
2.604314826E+01  1.826304626E+02
2.605788905E+01  1.827909241E+02
2.607262985E+01  1.826633911E+02
2.608737064E+01  1.824583740E+02
2.610211143E+01  1.818871155E+02
2.611685222E+01  1.816145325E+02
2.613159301E+01  1.814746552E+02
2.614633381E+01  1.813691254E+02
2.616107460E+01  1.820850372E+02
2.617581539E+01  1.825872498E+02
2.619055618E+01  1.817452698E+02
2.620529697E+01  1.813125000E+02
2.622003777E+01  1.815501556E+02
2.623477856E+01  1.816611023E+02
2.624951935E+01  1.817662506E+02
2.626426014E+01  1.812614899E+02
2.627900094E+01  1.805784302E+02
2.629374173E+01  1.809109650E+02
2.630848252E+01  1.811808167E+02
2.632322331E+01  1.813504791E+02
2.633796410E+01  1.810117035E+02
2.635270490E+01  1.808147736E+02
2.636744569E+01  1.813024597E+02
2.638218648E+01  1.815118866E+02
2.639692727E+01  1.805709686E+02
2.641166806E+01  1.801277466E+02
2.642640886E+01  1.795029449E+02
2.644114965E+01  1.797254028E+02
2.645589044E+01  1.793076324E+02
2.647063123E+01  1.792893524E+02
2.648537202E+01  1.800455322E+02
2.650011282E+01  1.807632446E+02
2.651485361E+01  1.806417694E+02
2.652959440E+01  1.807306061E+02
2.654433519E+01  1.807777405E+02
2.655907599E+01  1.804591217E+02
2.657381678E+01  1.799237366E+02
2.658855757E+01  1.804319611E+02
2.660329836E+01  1.801063232E+02
2.661803915E+01  1.804562988E+02
2.663277995E+01  1.806380310E+02
2.664752074E+01  1.804079742E+02
2.666226153E+01  1.803380890E+02
2.667700232E+01  1.803962402E+02
2.669174311E+01  1.800706635E+02
2.670648391E+01  1.798027649E+02
2.672122470E+01  1.796062317E+02
2.673596549E+01  1.796437073E+02
2.675070628E+01  1.796702576E+02
2.676544707E+01  1.791523895E+02
2.678018787E+01  1.786099243E+02
2.679492866E+01  1.791223907E+02
2.680966945E+01  1.791003876E+02
2.682441024E+01  1.788385468E+02
2.683915104E+01  1.788796692E+02
2.685389183E+01  1.789463806E+02
2.686863262E+01  1.789896851E+02
2.688337341E+01  1.780813904E+02
2.689811420E+01  1.773412781E+02
2.691285500E+01  1.771295013E+02
2.692759579E+01  1.774673615E+02
2.694233658E+01  1.778877106E+02
2.695707737E+01  1.786674500E+02
2.697181816E+01  1.793170624E+02
2.698655896E+01  1.790009460E+02
2.700129975E+01  1.790528259E+02
2.701604054E+01  1.787930450E+02
2.703078133E+01  1.787501526E+02
2.704552213E+01  1.785199890E+02
2.706026292E+01  1.782777100E+02
2.707500371E+01  1.785885925E+02
2.708974450E+01  1.789969025E+02
2.710448529E+01  1.791659698E+02
2.711922609E+01  1.789394684E+02
2.713396688E+01  1.782251282E+02
2.714870767E+01  1.778932648E+02
2.716344846E+01  1.778266449E+02
2.717818925E+01  1.782648010E+02
2.719293005E+01  1.778382416E+02
2.720767084E+01  1.775622864E+02
2.722241163E+01  1.776181183E+02
2.723715242E+01  1.774125214E+02
2.725189321E+01  1.772521210E+02
2.726663401E+01  1.772789917E+02
2.728137480E+01  1.775105286E+02
2.729611559E+01  1.778917084E+02
2.731085638E+01  1.780146179E+02
2.732559718E+01  1.777412109E+02
2.734033797E+01  1.776663666E+02
2.735507876E+01  1.774125671E+02
2.736981955E+01  1.775082550E+02
2.738456034E+01  1.772500153E+02
2.739930114E+01  1.766168671E+02
2.741404193E+01  1.768524323E+02
2.742878272E+01  1.771298370E+02
2.744352351E+01  1.770827484E+02
2.745826430E+01  1.768616028E+02
2.747300510E+01  1.769616394E+02
2.748774589E+01  1.767416992E+02
2.750248668E+01  1.761841278E+02
2.751722747E+01  1.758305054E+02
2.753196826E+01  1.756847687E+02
2.754670906E+01  1.755831909E+02
2.756144985E+01  1.757004852E+02
2.757619064E+01  1.760695343E+02
2.759093143E+01  1.759001007E+02
2.760567223E+01  1.751426697E+02
2.762041302E+01  1.762481537E+02
2.763515381E+01  1.768430939E+02
2.764989460E+01  1.766835175E+02
2.766463539E+01  1.766030731E+02
2.767937619E+01  1.763993378E+02
2.769411698E+01  1.755554962E+02
2.770885777E+01  1.751613159E+02
2.772359856E+01  1.752179718E+02
2.773833935E+01  1.751202545E+02
2.775308015E+01  1.748206635E+02
2.776782094E+01  1.748020172E+02
2.778256173E+01  1.750472260E+02
2.779730252E+01  1.750028839E+02
2.781204331E+01  1.752217255E+02
2.782678411E+01  1.759022369E+02
2.784152490E+01  1.754265747E+02
2.785626569E+01  1.742575684E+02
2.787100648E+01  1.736616364E+02
2.788574728E+01  1.747194214E+02
2.790048807E+01  1.747624359E+02
2.791522886E+01  1.747080231E+02
2.792996965E+01  1.749020691E+02
2.794471044E+01  1.756244354E+02
2.795945124E+01  1.757122650E+02
2.797419203E+01  1.748981323E+02
2.798893282E+01  1.736119080E+02
2.800367361E+01  1.731748047E+02
2.801841440E+01  1.738846588E+02
2.803315520E+01  1.748410034E+02
2.804789599E+01  1.747155762E+02
2.806263678E+01  1.739072113E+02
2.807737757E+01  1.732675629E+02
2.809211837E+01  1.730530853E+02
2.810685916E+01  1.734522705E+02
2.812159995E+01  1.742489166E+02
2.813634074E+01  1.742716522E+02
2.815108153E+01  1.740163269E+02
2.816582233E+01  1.734570923E+02
2.818056312E+01  1.736351929E+02
2.819530391E+01  1.741125183E+02
2.821004470E+01  1.742822418E+02
2.822478549E+01  1.741243134E+02
2.823952629E+01  1.741625366E+02
2.825426708E+01  1.742205658E+02
2.826900787E+01  1.743560028E+02
2.828374866E+01  1.743659515E+02
2.829848945E+01  1.741269684E+02
2.831323025E+01  1.733803558E+02
2.832797104E+01  1.730928955E+02
2.834271183E+01  1.731701050E+02
2.835745262E+01  1.734043732E+02
2.837219342E+01  1.743392639E+02
2.838693421E+01  1.744255524E+02
2.840167500E+01  1.734052124E+02
2.841641579E+01  1.725757141E+02
2.843115658E+01  1.735015259E+02
2.844589738E+01  1.737010956E+02
2.846063817E+01  1.734263000E+02
2.847537896E+01  1.733991089E+02
2.849011975E+01  1.740287628E+02
2.850486054E+01  1.741118469E+02
2.851960134E+01  1.740910187E+02
2.853434213E+01  1.745733490E+02
2.854908292E+01  1.750626221E+02
2.856382371E+01  1.752174835E+02
2.857856450E+01  1.745677795E+02
2.859330530E+01  1.746560364E+02
2.860804609E+01  1.751940765E+02
2.862278688E+01  1.760135345E+02
2.863752767E+01  1.758428040E+02
2.865226847E+01  1.758565369E+02
2.866700926E+01  1.767254333E+02
2.868175005E+01  1.769611664E+02
2.869649084E+01  1.764689484E+02
2.871123163E+01  1.763818817E+02
2.872597243E+01  1.764262238E+02
2.874071322E+01  1.768112183E+02
2.875545401E+01  1.767520447E+02
2.877019480E+01  1.762441406E+02
2.878493559E+01  1.756906433E+02
2.879967639E+01  1.750127563E+02
2.881441718E+01  1.748032684E+02
2.882915797E+01  1.744713745E+02
2.884389876E+01  1.744389954E+02
2.885863955E+01  1.745284882E+02
2.887338035E+01  1.745732269E+02
2.888812114E+01  1.746009064E+02
2.890286193E+01  1.741885681E+02
2.891760272E+01  1.737431488E+02
2.893234352E+01  1.743804474E+02
2.894708431E+01  1.747287903E+02
2.896182510E+01  1.749573212E+02
2.897656589E+01  1.740159149E+02
2.899130668E+01  1.735993805E+02
2.900604748E+01  1.729338531E+02
2.902078827E+01  1.727499084E+02
2.903552906E+01  1.728905029E+02
2.905026985E+01  1.726376343E+02
2.906501064E+01  1.718530121E+02
2.907975144E+01  1.726450653E+02
2.909449223E+01  1.731002045E+02
2.910923302E+01  1.726913300E+02
2.912397381E+01  1.713236847E+02
2.913871461E+01  1.713625031E+02
2.915345540E+01  1.723985596E+02
2.916819619E+01  1.730748749E+02
2.918293698E+01  1.722301025E+02
2.919767777E+01  1.714427490E+02
2.921241857E+01  1.711457520E+02
2.922715936E+01  1.713240967E+02
2.924190015E+01  1.717655334E+02
2.925664094E+01  1.716015015E+02
2.927138173E+01  1.717129822E+02
2.928612253E+01  1.718432007E+02
2.930086332E+01  1.720617218E+02
2.931560411E+01  1.716657867E+02
2.933034490E+01  1.702760315E+02
2.934508569E+01  1.702947388E+02
2.935982649E+01  1.715978851E+02
2.937456728E+01  1.720809021E+02
2.938930807E+01  1.718655243E+02
2.940404886E+01  1.719796600E+02
2.941878966E+01  1.719380493E+02
2.943353045E+01  1.715248871E+02
2.944827124E+01  1.708920898E+02
2.946301203E+01  1.705736084E+02
2.947775282E+01  1.699477386E+02
2.949249362E+01  1.698510742E+02
2.950723441E+01  1.702190552E+02
2.952197520E+01  1.703553009E+02
2.953671599E+01  1.702304230E+02
2.955145678E+01  1.700519409E+02
2.956619758E+01  1.697359161E+02
2.958093837E+01  1.701328583E+02
2.959567916E+01  1.705484772E+02
2.961041995E+01  1.698416290E+02
2.962516074E+01  1.694159546E+02
2.963990154E+01  1.697327271E+02
2.965464233E+01  1.701528168E+02
2.966938312E+01  1.691241302E+02
2.968412391E+01  1.684188385E+02
2.969886471E+01  1.689004211E+02
2.971360550E+01  1.695146637E+02
2.972834629E+01  1.696580505E+02
2.974308708E+01  1.697455292E+02
2.975782787E+01  1.698174896E+02
2.977256867E+01  1.689231567E+02
2.978730946E+01  1.676868134E+02
2.980205025E+01  1.678808289E+02
2.981679104E+01  1.686165161E+02
2.983153183E+01  1.692353516E+02
2.984627263E+01  1.687410889E+02
2.986101342E+01  1.676838837E+02
2.987575421E+01  1.673448334E+02
2.989049500E+01  1.674593811E+02
2.990523579E+01  1.666793976E+02
2.991997659E+01  1.660977936E+02
2.993471738E+01  1.659404755E+02
2.994945817E+01  1.660923615E+02
2.996419896E+01  1.653105621E+02
2.997893976E+01  1.644351959E+02
2.999368055E+01  1.633759613E+02
3.000842134E+01  1.621744080E+02
3.002316213E+01  1.611996155E+02
3.003790292E+01  1.610559998E+02
3.005264372E+01  1.606060486E+02
3.006738451E+01  1.587098389E+02
3.008212530E+01  1.571626129E+02
3.009686609E+01  1.568237762E+02
3.011160688E+01  1.558656158E+02
3.012634768E+01  1.541993408E+02
3.014108847E+01  1.529850922E+02
3.015582926E+01  1.520020905E+02
3.017057005E+01  1.513779297E+02
3.018531085E+01  1.501062775E+02
3.020005164E+01  1.489845734E+02
3.021479243E+01  1.474548950E+02
3.022953322E+01  1.449918518E+02
3.024427401E+01  1.430478210E+02
3.025901481E+01  1.418656921E+02
3.027375560E+01  1.400749054E+02
3.028849639E+01  1.385826416E+02
3.030323718E+01  1.363843079E+02
3.031797797E+01  1.338154297E+02
3.033271877E+01  1.330823212E+02
3.034745956E+01  1.323913879E+02
3.036220035E+01  1.306647644E+02
3.037694114E+01  1.288772736E+02
3.039168193E+01  1.279485626E+02
3.040642273E+01  1.270597610E+02
3.042116352E+01  1.265455093E+02
3.043590431E+01  1.264625092E+02
3.045064510E+01  1.264836884E+02
3.046538590E+01  1.251451340E+02
3.048012669E+01  1.234593124E+02
3.049486748E+01  1.225601425E+02
3.050960827E+01  1.222990265E+02
3.052434906E+01  1.217695618E+02
3.053908986E+01  1.202315063E+02
3.055383065E+01  1.185489807E+02
3.056857144E+01  1.173126602E+02
3.058331223E+01  1.170295258E+02
3.059805302E+01  1.162595215E+02
3.061279382E+01  1.153134308E+02
3.062753461E+01  1.138841171E+02
3.064227540E+01  1.128513184E+02
3.065701619E+01  1.121731262E+02
3.067175698E+01  1.114306107E+02
3.068649778E+01  1.102895966E+02
3.070123857E+01  1.096266327E+02
3.071597936E+01  1.093699722E+02
3.073072015E+01  1.084338455E+02
3.074546095E+01  1.069977112E+02
3.076020174E+01  1.050201263E+02
3.077494253E+01  1.042560043E+02
3.078968332E+01  1.036549759E+02
3.080442411E+01  1.024403687E+02
3.081916491E+01  1.012013550E+02
3.083390570E+01  1.002317734E+02
3.084864649E+01  9.894975281E+01
3.086338728E+01  9.812509155E+01
3.087812807E+01  9.783360291E+01
3.089286887E+01  9.734541321E+01
3.090760966E+01  9.634264374E+01
3.092235045E+01  9.560202789E+01
3.093709124E+01  9.456301880E+01
3.095183203E+01  9.262289429E+01
3.096657283E+01  9.141618347E+01
3.098131362E+01  9.072499847E+01
3.099605441E+01  8.990007782E+01
3.101079520E+01  8.885091400E+01
3.102553600E+01  8.779547882E+01
3.104027679E+01  8.699395752E+01
3.105501758E+01  8.572133636E+01
3.106975837E+01  8.526002502E+01
3.108449916E+01  8.425113678E+01
3.109923996E+01  8.302574921E+01
3.111398075E+01  8.188951874E+01
3.112872154E+01  8.064451599E+01
3.114346233E+01  7.963404083E+01
3.115820312E+01  7.890011597E+01
3.117294392E+01  7.797158051E+01
3.118768471E+01  7.694683838E+01
3.120242550E+01  7.610427094E+01
3.121716629E+01  7.560345459E+01
3.123190709E+01  7.482189178E+01
3.124664788E+01  7.377714539E+01
3.126138867E+01  7.239128876E+01
3.127612946E+01  7.146440125E+01
3.129087025E+01  7.069795990E+01
3.130561105E+01  6.984260559E+01
3.132035184E+01  6.853015900E+01
3.133509263E+01  6.786388397E+01
3.134983342E+01  6.721269989E+01
3.136457421E+01  6.624604034E+01
3.137931501E+01  6.541667938E+01
3.139405580E+01  6.469787598E+01
3.140879659E+01  6.381419754E+01
3.142353738E+01  6.241889191E+01
3.143827817E+01  6.119001389E+01
3.145301897E+01  6.048392487E+01
3.146775976E+01  5.979618073E+01
3.148250055E+01  5.892999268E+01
3.149724134E+01  5.771423721E+01
3.151198214E+01  5.746971512E+01
3.152672293E+01  5.707747650E+01
3.154146372E+01  5.547358322E+01
3.155620451E+01  5.412638474E+01
3.157094530E+01  5.357959747E+01
3.158568610E+01  5.343157196E+01
3.160042689E+01  5.292993164E+01
3.161516768E+01  5.190045929E+01
3.162990847E+01  5.025976562E+01
3.164464926E+01  4.967378998E+01
3.165939006E+01  4.909672165E+01
3.167413085E+01  4.788546753E+01
3.168887164E+01  4.702901077E+01
3.170361243E+01  4.567616653E+01
3.171835322E+01  4.504830170E+01
3.173309402E+01  4.442824936E+01
3.174783481E+01  4.413191986E+01
3.176257560E+01  4.399604797E+01
3.177731639E+01  4.304962540E+01
3.179205719E+01  4.207072830E+01
3.180679798E+01  4.091257095E+01
3.182153877E+01  3.999631882E+01
3.183627956E+01  3.915559006E+01
3.185102035E+01  3.842403030E+01
3.186576115E+01  3.841947174E+01
3.188050194E+01  3.657542038E+01
3.189524273E+01  3.369874573E+01
3.190998352E+01  3.280436325E+01
3.192472431E+01  3.211188889E+01
3.193946511E+01  3.076550865E+01
3.195420590E+01  2.971499443E+01
3.196894669E+01  2.995224762E+01
3.198368748E+01  2.953350258E+01
3.199842827E+01  2.983379745E+01
3.201316907E+01  3.074934196E+01
3.202790986E+01  2.771468163E+01
3.204265065E+01  2.771468163E+01
3.205739144E+01  3.137138557E+01
3.207213224E+01  2.005574417E+01
3.208687303E+01  1.527819157E+01
