# == pyFAI calibration ==
# Distance Sample to Detector: 0.11507480176033233 m
# PONI: 5.477e-03, 4.716e-03 m
# Rotations: 0.004686 0.005536 0.000000 rad
# 
# == Fit2d calibration ==
# Distance Sample-beamCenter: 115.078 mm
# Center: x=55.690, y=81.516 pix
# Tilt: 0.416 deg  TiltPlanRot: 130.247 deg
# 
# Detector Detector	 Spline= None	 PixelSize= 7.500e-05, 7.500e-05 m
#    Detector has a mask: False 
#    Detector has a dark current: False 
#    detector has a flat field: False 
# 
# Wavelength: 4.833e-11 m
# Mask applied: None
# Dark current applied: None
# Flat field applied: None
# Polarization factor: None
# Normalization factor: None
#
# 2th_deg	 I
1.131209591E+00  6.495579529E+01
1.145950384E+00  7.701218414E+01
1.160691176E+00  9.166235352E+01
1.175431968E+00  1.004607391E+02
1.190172760E+00  1.131696091E+02
1.204913552E+00  1.222291946E+02
1.219654344E+00  1.338409729E+02
1.234395136E+00  1.383447723E+02
1.249135928E+00  1.429071960E+02
1.263876720E+00  1.515430908E+02
1.278617513E+00  1.579867554E+02
1.293358305E+00  1.643380737E+02
1.308099097E+00  1.649222870E+02
1.322839889E+00  1.699822540E+02
1.337580681E+00  1.755038300E+02
1.352321473E+00  1.796285858E+02
1.367062265E+00  1.850782013E+02
1.381803057E+00  1.863684082E+02
1.396543850E+00  1.893126068E+02
1.411284642E+00  1.926731720E+02
1.426025434E+00  1.952293854E+02
1.440766226E+00  1.994242096E+02
1.455507018E+00  1.996772003E+02
1.470247810E+00  2.002375336E+02
1.484988602E+00  2.025606995E+02
1.499729394E+00  2.049193268E+02
1.514470186E+00  2.064444733E+02
1.529210979E+00  2.066622620E+02
1.543951771E+00  2.083231964E+02
1.558692563E+00  2.110432281E+02
1.573433355E+00  2.134624939E+02
1.588174147E+00  2.144754639E+02
1.602914939E+00  2.146034546E+02
1.617655731E+00  2.167183228E+02
1.632396523E+00  2.186908722E+02
1.647137315E+00  2.221950226E+02
1.661878108E+00  2.240617981E+02
1.676618900E+00  2.236616211E+02
1.691359692E+00  2.250395813E+02
1.706100484E+00  2.258655548E+02
1.720841276E+00  2.289454041E+02
1.735582068E+00  2.299626923E+02
1.750322860E+00  2.304490356E+02
1.765063652E+00  2.300425568E+02
1.779804444E+00  2.303687439E+02
1.794545237E+00  2.314193878E+02
1.809286029E+00  2.330082550E+02
1.824026821E+00  2.346499939E+02
1.838767613E+00  2.345966492E+02
1.853508405E+00  2.352836151E+02
1.868249197E+00  2.351367950E+02
1.882989989E+00  2.368670807E+02
1.897730781E+00  2.382611237E+02
1.912471573E+00  2.388634338E+02
1.927212366E+00  2.403295288E+02
1.941953158E+00  2.408320618E+02
1.956693950E+00  2.429353790E+02
1.971434742E+00  2.448264618E+02
1.986175534E+00  2.462062073E+02
2.000916326E+00  2.475254822E+02
2.015657118E+00  2.476290283E+02
2.030397910E+00  2.486603088E+02
2.045138702E+00  2.500848236E+02
2.059879495E+00  2.518054504E+02
2.074620287E+00  2.539418793E+02
2.089361079E+00  2.554044342E+02
2.104101871E+00  2.565410156E+02
2.118842663E+00  2.582450562E+02
2.133583455E+00  2.589494629E+02
2.148324247E+00  2.603341675E+02
2.163065039E+00  2.589732056E+02
2.177805831E+00  2.590729980E+02
2.192546624E+00  2.598963013E+02
2.207287416E+00  2.608545837E+02
2.222028208E+00  2.632656860E+02
2.236769000E+00  2.631726990E+02
2.251509792E+00  2.645785522E+02
2.266250584E+00  2.656971741E+02
2.280991376E+00  2.667771606E+02
2.295732168E+00  2.671004639E+02
2.310472960E+00  2.664481506E+02
2.325213753E+00  2.667633362E+02
2.339954545E+00  2.667843628E+02
2.354695337E+00  2.671383667E+02
2.369436129E+00  2.678463440E+02
2.384176921E+00  2.683349609E+02
2.398917713E+00  2.691239014E+02
2.413658505E+00  2.704839172E+02
2.428399297E+00  2.715187073E+02
2.443140089E+00  2.721943665E+02
2.457880882E+00  2.699216614E+02
2.472621674E+00  2.688565674E+02
2.487362466E+00  2.684631958E+02
2.502103258E+00  2.698663330E+02
2.516844050E+00  2.710900269E+02
2.531584842E+00  2.706307983E+02
2.546325634E+00  2.699682617E+02
2.561066426E+00  2.690639648E+02
2.575807219E+00  2.694229126E+02
2.590548011E+00  2.697773132E+02
2.605288803E+00  2.688520203E+02
2.620029595E+00  2.688913574E+02
2.634770387E+00  2.691213684E+02
2.649511179E+00  2.698921814E+02
2.664251971E+00  2.696594238E+02
2.678992763E+00  2.695430908E+02
2.693733555E+00  2.698761597E+02
2.708474348E+00  2.699860535E+02
2.723215140E+00  2.692296753E+02
2.737955932E+00  2.686440735E+02
2.752696724E+00  2.682046204E+02
2.767437516E+00  2.682947998E+02
2.782178308E+00  2.680998535E+02
2.796919100E+00  2.672040710E+02
2.811659892E+00  2.667054749E+02
2.826400684E+00  2.653444519E+02
2.841141477E+00  2.650780945E+02
2.855882269E+00  2.648071899E+02
2.870623061E+00  2.657865906E+02
2.885363853E+00  2.661612244E+02
2.900104645E+00  2.656928406E+02
2.914845437E+00  2.652046204E+02
2.929586229E+00  2.643384705E+02
2.944327021E+00  2.637892151E+02
2.959067813E+00  2.628540955E+02
2.973808606E+00  2.633423462E+02
2.988549398E+00  2.634836121E+02
3.003290190E+00  2.632958679E+02
3.018030982E+00  2.621658325E+02
3.032771774E+00  2.610412903E+02
3.047512566E+00  2.620323486E+02
3.062253358E+00  2.630842896E+02
3.076994150E+00  2.631024780E+02
3.091734942E+00  2.624929504E+02
3.106475735E+00  2.613569946E+02
3.121216527E+00  2.614278259E+02
3.135957319E+00  2.614270935E+02
3.150698111E+00  2.612546997E+02
3.165438903E+00  2.616773682E+02
3.180179695E+00  2.621297913E+02
3.194920487E+00  2.633540344E+02
3.209661279E+00  2.635938721E+02
3.224402071E+00  2.633640137E+02
3.239142864E+00  2.631675720E+02
3.253883656E+00  2.618865356E+02
3.268624448E+00  2.615797729E+02
3.283365240E+00  2.606529846E+02
3.298106032E+00  2.605623474E+02
3.312846824E+00  2.602384338E+02
3.327587616E+00  2.604100342E+02
3.342328408E+00  2.610466614E+02
3.357069200E+00  2.614284668E+02
3.371809993E+00  2.615732422E+02
3.386550785E+00  2.607765503E+02
3.401291577E+00  2.601098022E+02
3.416032369E+00  2.602681274E+02
3.430773161E+00  2.601073608E+02
3.445513953E+00  2.603487549E+02
3.460254745E+00  2.597810974E+02
3.474995537E+00  2.595646057E+02
3.489736329E+00  2.595689697E+02
3.504477122E+00  2.598296204E+02
3.519217914E+00  2.589985046E+02
3.533958706E+00  2.593883362E+02
3.548699498E+00  2.594378662E+02
3.563440290E+00  2.594759827E+02
3.578181082E+00  2.581859131E+02
3.592921874E+00  2.566029968E+02
3.607662666E+00  2.567994995E+02
3.622403458E+00  2.566381226E+02
3.637144251E+00  2.581098328E+02
3.651885043E+00  2.570649414E+02
3.666625835E+00  2.555027161E+02
3.681366627E+00  2.532183075E+02
3.696107419E+00  2.522916260E+02
3.710848211E+00  2.517535095E+02
3.725589003E+00  2.521653900E+02
3.740329795E+00  2.537055969E+02
3.755070587E+00  2.546159973E+02
3.769811380E+00  2.547997131E+02
3.784552172E+00  2.553850555E+02
3.799292964E+00  2.570993652E+02
3.814033756E+00  2.593616943E+02
3.828774548E+00  2.610578918E+02
3.843515340E+00  2.616501465E+02
3.858256132E+00  2.617286072E+02
3.872996924E+00  2.619671326E+02
3.887737717E+00  2.610988464E+02
3.902478509E+00  2.602914429E+02
3.917219301E+00  2.587157288E+02
3.931960093E+00  2.566196289E+02
3.946700885E+00  2.551293640E+02
3.961441677E+00  2.536559753E+02
3.976182469E+00  2.538081207E+02
3.990923261E+00  2.526162872E+02
4.005664053E+00  2.523608551E+02
4.020404846E+00  2.500771484E+02
4.035145638E+00  2.483111572E+02
4.049886430E+00  2.470026245E+02
4.064627222E+00  2.467710571E+02
4.079368014E+00  2.474160309E+02
4.094108806E+00  2.469467468E+02
4.108849598E+00  2.458655090E+02
4.123590390E+00  2.436806641E+02
4.138331182E+00  2.426404114E+02
4.153071975E+00  2.424046478E+02
4.167812767E+00  2.426489868E+02
4.182553559E+00  2.419965973E+02
4.197294351E+00  2.410341187E+02
4.212035143E+00  2.411069946E+02
4.226775935E+00  2.406035309E+02
4.241516727E+00  2.396199799E+02
4.256257519E+00  2.387017822E+02
4.270998311E+00  2.380850067E+02
4.285739104E+00  2.381918640E+02
4.300479896E+00  2.385764008E+02
4.315220688E+00  2.383490448E+02
4.329961480E+00  2.379384766E+02
4.344702272E+00  2.379877625E+02
4.359443064E+00  2.369856415E+02
4.374183856E+00  2.356135712E+02
4.388924648E+00  2.347005157E+02
4.403665440E+00  2.342260437E+02
4.418406233E+00  2.336687317E+02
4.433147025E+00  2.321943970E+02
4.447887817E+00  2.320424042E+02
4.462628609E+00  2.322520294E+02
4.477369401E+00  2.320893097E+02
4.492110193E+00  2.311218414E+02
4.506850985E+00  2.302233124E+02
4.521591777E+00  2.298705292E+02
4.536332569E+00  2.294402313E+02
4.551073362E+00  2.290232544E+02
4.565814154E+00  2.288687744E+02
4.580554946E+00  2.296468658E+02
4.595295738E+00  2.301830750E+02
4.610036530E+00  2.303249969E+02
4.624777322E+00  2.304360657E+02
4.639518114E+00  2.296331329E+02
4.654258906E+00  2.283636169E+02
4.668999698E+00  2.274624634E+02
4.683740491E+00  2.264217072E+02
4.698481283E+00  2.267723999E+02
4.713222075E+00  2.270166321E+02
4.727962867E+00  2.276395569E+02
4.742703659E+00  2.276059113E+02
4.757444451E+00  2.275125122E+02
4.772185243E+00  2.273324280E+02
4.786926035E+00  2.278694458E+02
4.801666827E+00  2.273447418E+02
4.816407620E+00  2.269186859E+02
4.831148412E+00  2.262697754E+02
4.845889204E+00  2.247841034E+02
4.860629996E+00  2.252999725E+02
4.875370788E+00  2.244580078E+02
4.890111580E+00  2.249055481E+02
4.904852372E+00  2.239416962E+02
4.919593164E+00  2.247472076E+02
4.934333956E+00  2.253459015E+02
4.949074749E+00  2.255310516E+02
4.963815541E+00  2.248912659E+02
4.978556333E+00  2.238720703E+02
4.993297125E+00  2.225393372E+02
5.008037917E+00  2.218872833E+02
5.022778709E+00  2.217596436E+02
5.037519501E+00  2.218754578E+02
5.052260293E+00  2.220820770E+02
5.067001086E+00  2.219727783E+02
5.081741878E+00  2.218858337E+02
5.096482670E+00  2.219052124E+02
5.111223462E+00  2.219848785E+02
5.125964254E+00  2.218309784E+02
5.140705046E+00  2.211628571E+02
5.155445838E+00  2.203271332E+02
5.170186630E+00  2.198492126E+02
5.184927422E+00  2.203214874E+02
5.199668215E+00  2.201854401E+02
5.214409007E+00  2.205640411E+02
5.229149799E+00  2.194115143E+02
5.243890591E+00  2.189988403E+02
5.258631383E+00  2.188960876E+02
5.273372175E+00  2.192880249E+02
5.288112967E+00  2.197046509E+02
5.302853759E+00  2.194421997E+02
5.317594551E+00  2.187325134E+02
5.332335344E+00  2.179167175E+02
5.347076136E+00  2.168660889E+02
5.361816928E+00  2.164805756E+02
5.376557720E+00  2.162503662E+02
5.391298512E+00  2.161851501E+02
5.406039304E+00  2.164938354E+02
5.420780096E+00  2.167028809E+02
5.435520888E+00  2.166633148E+02
5.450261680E+00  2.162023315E+02
5.465002473E+00  2.162993011E+02
5.479743265E+00  2.168145752E+02
5.494484057E+00  2.170397186E+02
5.509224849E+00  2.166487427E+02
5.523965641E+00  2.164475403E+02
5.538706433E+00  2.158285370E+02
5.553447225E+00  2.160360718E+02
5.568188017E+00  2.159080505E+02
5.582928809E+00  2.164463043E+02
5.597669602E+00  2.165408478E+02
5.612410394E+00  2.159357910E+02
5.627151186E+00  2.155836945E+02
5.641891978E+00  2.153498077E+02
5.656632770E+00  2.161119537E+02
5.671373562E+00  2.170550690E+02
5.686114354E+00  2.177970581E+02
5.700855146E+00  2.178718414E+02
5.715595938E+00  2.176935883E+02
5.730336731E+00  2.174996490E+02
5.745077523E+00  2.178009796E+02
5.759818315E+00  2.184564972E+02
5.774559107E+00  2.190220947E+02
5.789299899E+00  2.186461945E+02
5.804040691E+00  2.174643402E+02
5.818781483E+00  2.159464417E+02
5.833522275E+00  2.150608368E+02
5.848263067E+00  2.148481293E+02
5.863003860E+00  2.152743683E+02
5.877744652E+00  2.147357178E+02
5.892485444E+00  2.152268982E+02
5.907226236E+00  2.159046936E+02
5.921967028E+00  2.162477570E+02
5.936707820E+00  2.158873444E+02
5.951448612E+00  2.153907928E+02
5.966189404E+00  2.158670654E+02
5.980930196E+00  2.154179840E+02
5.995670989E+00  2.148974304E+02
6.010411781E+00  2.138608246E+02
6.025152573E+00  2.138517151E+02
6.039893365E+00  2.148263397E+02
6.054634157E+00  2.160716248E+02
6.069374949E+00  2.164628296E+02
6.084115741E+00  2.157864990E+02
6.098856533E+00  2.149790192E+02
6.113597325E+00  2.144907227E+02
6.128338118E+00  2.144379272E+02
6.143078910E+00  2.149219513E+02
6.157819702E+00  2.147833252E+02
6.172560494E+00  2.142880096E+02
6.187301286E+00  2.144535980E+02
6.202042078E+00  2.147207947E+02
6.216782870E+00  2.152202911E+02
6.231523662E+00  2.151240082E+02
6.246264454E+00  2.152791748E+02
6.261005247E+00  2.160478210E+02
6.275746039E+00  2.155752258E+02
6.290486831E+00  2.151462402E+02
6.305227623E+00  2.145210114E+02
6.319968415E+00  2.148324127E+02
6.334709207E+00  2.148094940E+02
6.349449999E+00  2.147872772E+02
6.364190791E+00  2.149067688E+02
6.378931584E+00  2.152795258E+02
6.393672376E+00  2.161416016E+02
6.408413168E+00  2.162910919E+02
6.423153960E+00  2.163199158E+02
6.437894752E+00  2.157179413E+02
6.452635544E+00  2.156282654E+02
6.467376336E+00  2.162569885E+02
6.482117128E+00  2.167330627E+02
6.496857920E+00  2.172533112E+02
6.511598713E+00  2.173550720E+02
6.526339505E+00  2.174018555E+02
6.541080297E+00  2.174167328E+02
6.555821089E+00  2.176246948E+02
6.570561881E+00  2.174630280E+02
6.585302673E+00  2.181497955E+02
6.600043465E+00  2.184524994E+02
6.614784257E+00  2.191952362E+02
6.629525049E+00  2.188646393E+02
6.644265842E+00  2.178745575E+02
6.659006634E+00  2.168672028E+02
6.673747426E+00  2.168746490E+02
6.688488218E+00  2.177471619E+02
6.703229010E+00  2.177193146E+02
6.717969802E+00  2.172571869E+02
6.732710594E+00  2.167888947E+02
6.747451386E+00  2.172671661E+02
6.762192178E+00  2.172680206E+02
6.776932971E+00  2.175254974E+02
6.791673763E+00  2.183135223E+02
6.806414555E+00  2.186244354E+02
6.821155347E+00  2.186932068E+02
6.835896139E+00  2.185841370E+02
6.850636931E+00  2.190430603E+02
6.865377723E+00  2.193787079E+02
6.880118515E+00  2.190930023E+02
6.894859307E+00  2.198906097E+02
6.909600100E+00  2.199909515E+02
6.924340892E+00  2.201570282E+02
6.939081684E+00  2.200347748E+02
6.953822476E+00  2.199122620E+02
6.968563268E+00  2.207427521E+02
6.983304060E+00  2.205761871E+02
6.998044852E+00  2.204584198E+02
7.012785644E+00  2.195036926E+02
7.027526436E+00  2.200682983E+02
7.042267229E+00  2.207715302E+02
7.057008021E+00  2.211844177E+02
7.071748813E+00  2.209415131E+02
7.086489605E+00  2.203750000E+02
7.101230397E+00  2.208979950E+02
7.115971189E+00  2.208461304E+02
7.130711981E+00  2.208168793E+02
7.145452773E+00  2.205340271E+02
7.160193565E+00  2.203910828E+02
7.174934358E+00  2.202875061E+02
7.189675150E+00  2.204445648E+02
7.204415942E+00  2.208378906E+02
7.219156734E+00  2.211806488E+02
7.233897526E+00  2.213063049E+02
7.248638318E+00  2.216976318E+02
7.263379110E+00  2.219707336E+02
7.278119902E+00  2.214364624E+02
7.292860694E+00  2.200391998E+02
7.307601487E+00  2.197069244E+02
7.322342279E+00  2.209822998E+02
7.337083071E+00  2.227015839E+02
7.351823863E+00  2.226537628E+02
7.366564655E+00  2.222491760E+02
7.381305447E+00  2.219651337E+02
7.396046239E+00  2.224727020E+02
7.410787031E+00  2.226734924E+02
7.425527823E+00  2.231338348E+02
7.440268616E+00  2.237161102E+02
7.455009408E+00  2.244458466E+02
7.469750200E+00  2.246469879E+02
7.484490992E+00  2.246563873E+02
7.499231784E+00  2.245010071E+02
7.513972576E+00  2.244560699E+02
7.528713368E+00  2.244717560E+02
7.543454160E+00  2.246011353E+02
7.558194953E+00  2.252181091E+02
7.572935745E+00  2.256083374E+02
7.587676537E+00  2.259030609E+02
7.602417329E+00  2.258830719E+02
7.617158121E+00  2.259514923E+02
7.631898913E+00  2.260823669E+02
7.646639705E+00  2.261784210E+02
7.661380497E+00  2.263264923E+02
7.676121289E+00  2.271356049E+02
7.690862082E+00  2.269561310E+02
7.705602874E+00  2.269932709E+02
7.720343666E+00  2.265951843E+02
7.735084458E+00  2.268628998E+02
7.749825250E+00  2.269457397E+02
7.764566042E+00  2.271149902E+02
7.779306834E+00  2.275553894E+02
7.794047626E+00  2.283250732E+02
7.808788418E+00  2.286157684E+02
7.823529211E+00  2.286396942E+02
7.838270003E+00  2.280054932E+02
7.853010795E+00  2.287053528E+02
7.867751587E+00  2.293906250E+02
7.882492379E+00  2.303497162E+02
7.897233171E+00  2.296089783E+02
7.911973963E+00  2.299025116E+02
7.926714755E+00  2.294015198E+02
7.941455547E+00  2.296865845E+02
7.956196340E+00  2.300894775E+02
7.970937132E+00  2.307825928E+02
7.985677924E+00  2.319530334E+02
8.000418716E+00  2.324044037E+02
8.015159508E+00  2.330530243E+02
8.029900300E+00  2.333066559E+02
8.044641092E+00  2.339215851E+02
8.059381884E+00  2.347702332E+02
8.074122676E+00  2.365791626E+02
8.088863469E+00  2.378829498E+02
8.103604261E+00  2.389539490E+02
8.118345053E+00  2.396110382E+02
8.133085845E+00  2.402751617E+02
8.147826637E+00  2.405074768E+02
8.162567429E+00  2.418211060E+02
8.177308221E+00  2.432539215E+02
8.192049013E+00  2.453075562E+02
8.206789805E+00  2.481928558E+02
8.221530598E+00  2.523983307E+02
8.236271390E+00  2.569177551E+02
8.251012182E+00  2.609894409E+02
8.265752974E+00  2.656461792E+02
8.280493766E+00  2.693241577E+02
8.295234558E+00  2.719518127E+02
8.309975350E+00  2.725850220E+02
8.324716142E+00  2.728318481E+02
8.339456934E+00  2.737420654E+02
8.354197727E+00  2.760433350E+02
8.368938519E+00  2.802607727E+02
8.383679311E+00  2.849257812E+02
8.398420103E+00  2.921716309E+02
8.413160895E+00  3.003135681E+02
8.427901687E+00  3.086943359E+02
8.442642479E+00  3.182919006E+02
8.457383271E+00  3.273341370E+02
8.472124063E+00  3.331078186E+02
8.486864856E+00  3.338169250E+02
8.501605648E+00  3.263275452E+02
8.516346440E+00  3.149937134E+02
8.531087232E+00  3.012422180E+02
8.545828024E+00  2.883401794E+02
8.560568816E+00  2.787483826E+02
8.575309608E+00  2.722664490E+02
8.590050400E+00  2.676170959E+02
8.604791192E+00  2.645429077E+02
8.619531985E+00  2.607328796E+02
8.634272777E+00  2.572978516E+02
8.649013569E+00  2.548617554E+02
8.663754361E+00  2.535972443E+02
8.678495153E+00  2.524643860E+02
8.693235945E+00  2.521222839E+02
8.707976737E+00  2.529443207E+02
8.722717529E+00  2.553448029E+02
8.737458321E+00  2.567792969E+02
8.752199114E+00  2.575115356E+02
8.766939906E+00  2.570321655E+02
8.781680698E+00  2.570255737E+02
8.796421490E+00  2.574951477E+02
8.811162282E+00  2.576099243E+02
8.825903074E+00  2.575117188E+02
8.840643866E+00  2.582641602E+02
8.855384658E+00  2.593941345E+02
8.870125451E+00  2.604995422E+02
8.884866243E+00  2.612871704E+02
8.899607035E+00  2.621471863E+02
8.914347827E+00  2.638039551E+02
8.929088619E+00  2.657451477E+02
8.943829411E+00  2.663496704E+02
8.958570203E+00  2.670825195E+02
8.973310995E+00  2.674914551E+02
8.988051787E+00  2.688528442E+02
9.002792580E+00  2.691773682E+02
9.017533372E+00  2.691341553E+02
9.032274164E+00  2.693968811E+02
9.047014956E+00  2.695000610E+02
9.061755748E+00  2.703193970E+02
9.076496540E+00  2.707548218E+02
9.091237332E+00  2.713988953E+02
9.105978124E+00  2.719577332E+02
9.120718916E+00  2.714240112E+02
9.135459709E+00  2.708397522E+02
9.150200501E+00  2.713388062E+02
9.164941293E+00  2.723132629E+02
9.179682085E+00  2.733804932E+02
9.194422877E+00  2.741985168E+02
9.209163669E+00  2.745274353E+02
9.223904461E+00  2.750924072E+02
9.238645253E+00  2.756098633E+02
9.253386045E+00  2.765449219E+02
9.268126838E+00  2.771483459E+02
9.282867630E+00  2.776465149E+02
9.297608422E+00  2.776209412E+02
9.312349214E+00  2.780191345E+02
9.327090006E+00  2.780884399E+02
9.341830798E+00  2.785379639E+02
9.356571590E+00  2.790140076E+02
9.371312382E+00  2.790900879E+02
9.386053174E+00  2.800814819E+02
9.400793967E+00  2.810911865E+02
9.415534759E+00  2.829922180E+02
9.430275551E+00  2.840693970E+02
9.445016343E+00  2.847559509E+02
9.459757135E+00  2.852181396E+02
9.474497927E+00  2.861253967E+02
9.489238719E+00  2.866560974E+02
9.503979511E+00  2.872884827E+02
9.518720303E+00  2.871723938E+02
9.533461096E+00  2.874946899E+02
9.548201888E+00  2.889475098E+02
9.562942680E+00  2.901230164E+02
9.577683472E+00  2.903882141E+02
9.592424264E+00  2.895003967E+02
9.607165056E+00  2.893391418E+02
9.621905848E+00  2.903245544E+02
9.636646640E+00  2.909615479E+02
9.651387432E+00  2.911025085E+02
9.666128225E+00  2.912792969E+02
9.680869017E+00  2.927962341E+02
9.695609809E+00  2.941227722E+02
9.710350601E+00  2.956133118E+02
9.725091393E+00  2.959167480E+02
9.739832185E+00  2.967915955E+02
9.754572977E+00  2.976741638E+02
9.769313769E+00  2.985329590E+02
9.784054561E+00  2.991756897E+02
9.798795354E+00  2.994820251E+02
9.813536146E+00  3.011275635E+02
9.828276938E+00  3.040603943E+02
9.843017730E+00  3.086061707E+02
9.857758522E+00  3.174067078E+02
9.872499314E+00  3.278560181E+02
9.887240106E+00  3.410113525E+02
9.901980898E+00  3.532440491E+02
9.916721690E+00  3.634506836E+02
9.931462483E+00  3.712040710E+02
9.946203275E+00  3.734929504E+02
9.960944067E+00  3.694928894E+02
9.975684859E+00  3.617593079E+02
9.990425651E+00  3.504983521E+02
1.000516644E+01  3.395526733E+02
1.001990724E+01  3.321783447E+02
1.003464803E+01  3.285019226E+02
1.004938882E+01  3.278472900E+02
1.006412961E+01  3.286071472E+02
1.007887040E+01  3.313085632E+02
1.009361120E+01  3.351858521E+02
1.010835199E+01  3.397283020E+02
1.012309278E+01  3.424035645E+02
1.013783357E+01  3.430162354E+02
1.015257436E+01  3.425591125E+02
1.016731516E+01  3.404357300E+02
1.018205595E+01  3.354873962E+02
1.019679674E+01  3.293564758E+02
1.021153753E+01  3.230099182E+02
1.022627832E+01  3.153739624E+02
1.024101912E+01  3.092474670E+02
1.025575991E+01  3.034567871E+02
1.027050070E+01  2.978333435E+02
1.028524149E+01  2.946372681E+02
1.029998229E+01  2.923272400E+02
1.031472308E+01  2.909673157E+02
1.032946387E+01  2.899224854E+02
1.034420466E+01  2.902835388E+02
1.035894545E+01  2.911842957E+02
1.037368625E+01  2.930633850E+02
1.038842704E+01  2.935596008E+02
1.040316783E+01  2.924426880E+02
1.041790862E+01  2.901925354E+02
1.043264941E+01  2.880859070E+02
1.044739021E+01  2.861289673E+02
1.046213100E+01  2.839016113E+02
1.047687179E+01  2.812442627E+02
1.049161258E+01  2.800183411E+02
1.050635337E+01  2.782607727E+02
1.052109417E+01  2.774724731E+02
1.053583496E+01  2.758832092E+02
1.055057575E+01  2.748772583E+02
1.056531654E+01  2.742462769E+02
1.058005734E+01  2.733761292E+02
1.059479813E+01  2.723472290E+02
1.060953892E+01  2.713143311E+02
1.062427971E+01  2.703460083E+02
1.063902050E+01  2.699548950E+02
1.065376130E+01  2.697821045E+02
1.066850209E+01  2.698565979E+02
1.068324288E+01  2.694447021E+02
1.069798367E+01  2.683990479E+02
1.071272446E+01  2.675630493E+02
1.072746526E+01  2.668745422E+02
1.074220605E+01  2.668289795E+02
1.075694684E+01  2.674960327E+02
1.077168763E+01  2.682455139E+02
1.078642843E+01  2.685947876E+02
1.080116922E+01  2.678479614E+02
1.081591001E+01  2.673517456E+02
1.083065080E+01  2.670063477E+02
1.084539159E+01  2.670683289E+02
1.086013239E+01  2.665556335E+02
1.087487318E+01  2.657331848E+02
1.088961397E+01  2.652300415E+02
1.090435476E+01  2.657747803E+02
1.091909555E+01  2.666079102E+02
1.093383635E+01  2.675225830E+02
1.094857714E+01  2.680685730E+02
1.096331793E+01  2.679769592E+02
1.097805872E+01  2.671932678E+02
1.099279951E+01  2.671197205E+02
1.100754031E+01  2.683316650E+02
1.102228110E+01  2.686982727E+02
1.103702189E+01  2.692631836E+02
1.105176268E+01  2.698677673E+02
1.106650348E+01  2.707341614E+02
1.108124427E+01  2.708994751E+02
1.109598506E+01  2.711758423E+02
1.111072585E+01  2.719275818E+02
1.112546664E+01  2.719126587E+02
1.114020744E+01  2.720523376E+02
1.115494823E+01  2.718700562E+02
1.116968902E+01  2.720814819E+02
1.118442981E+01  2.720800171E+02
1.119917060E+01  2.722708740E+02
1.121391140E+01  2.728644714E+02
1.122865219E+01  2.728242493E+02
1.124339298E+01  2.726149292E+02
1.125813377E+01  2.712283936E+02
1.127287456E+01  2.716861572E+02
1.128761536E+01  2.725524292E+02
1.130235615E+01  2.734572144E+02
1.131709694E+01  2.725182190E+02
1.133183773E+01  2.711281433E+02
1.134657853E+01  2.700135193E+02
1.136131932E+01  2.703200378E+02
1.137606011E+01  2.706262817E+02
1.139080090E+01  2.709566650E+02
1.140554169E+01  2.703600464E+02
1.142028249E+01  2.699956360E+02
1.143502328E+01  2.691892700E+02
1.144976407E+01  2.687763062E+02
1.146450486E+01  2.688540649E+02
1.147924565E+01  2.689831848E+02
1.149398645E+01  2.694732666E+02
1.150872724E+01  2.708387451E+02
1.152346803E+01  2.714323120E+02
1.153820882E+01  2.731257629E+02
1.155294961E+01  2.750661316E+02
1.156769041E+01  2.775072327E+02
1.158243120E+01  2.799159546E+02
1.159717199E+01  2.828660278E+02
1.161191278E+01  2.883501282E+02
1.162665358E+01  2.944041443E+02
1.164139437E+01  3.017507629E+02
1.165613516E+01  3.092499695E+02
1.167087595E+01  3.162308044E+02
1.168561674E+01  3.209625244E+02
1.170035754E+01  3.268450928E+02
1.171509833E+01  3.307969971E+02
1.172983912E+01  3.329018250E+02
1.174457991E+01  3.322932434E+02
1.175932070E+01  3.280967102E+02
1.177406150E+01  3.204094238E+02
1.178880229E+01  3.104466553E+02
1.180354308E+01  3.002925110E+02
1.181828387E+01  2.903758850E+02
1.183302467E+01  2.838227234E+02
1.184776546E+01  2.777805176E+02
1.186250625E+01  2.744785156E+02
1.187724704E+01  2.728459778E+02
1.189198783E+01  2.720946350E+02
1.190672863E+01  2.719815674E+02
1.192146942E+01  2.707852478E+02
1.193621021E+01  2.700045166E+02
1.195095100E+01  2.699278259E+02
1.196569179E+01  2.697132874E+02
1.198043259E+01  2.690553894E+02
1.199517338E+01  2.689624023E+02
1.200991417E+01  2.692792664E+02
1.202465496E+01  2.700652466E+02
1.203939575E+01  2.699560242E+02
1.205413655E+01  2.689497070E+02
1.206887734E+01  2.682915039E+02
1.208361813E+01  2.683866882E+02
1.209835892E+01  2.687126770E+02
1.211309972E+01  2.686318359E+02
1.212784051E+01  2.689523926E+02
1.214258130E+01  2.697035828E+02
1.215732209E+01  2.705266113E+02
1.217206288E+01  2.709416504E+02
1.218680368E+01  2.710881958E+02
1.220154447E+01  2.716268616E+02
1.221628526E+01  2.719440002E+02
1.223102605E+01  2.725392456E+02
1.224576684E+01  2.724384766E+02
1.226050764E+01  2.726154175E+02
1.227524843E+01  2.732871399E+02
1.228998922E+01  2.745134583E+02
1.230473001E+01  2.751409607E+02
1.231947080E+01  2.747119446E+02
1.233421160E+01  2.746638489E+02
1.234895239E+01  2.746928101E+02
1.236369318E+01  2.756816406E+02
1.237843397E+01  2.757787170E+02
1.239317477E+01  2.762655945E+02
1.240791556E+01  2.765751343E+02
1.242265635E+01  2.768456726E+02
1.243739714E+01  2.778340149E+02
1.245213793E+01  2.791374817E+02
1.246687873E+01  2.807978516E+02
1.248161952E+01  2.815146484E+02
1.249636031E+01  2.818563232E+02
1.251110110E+01  2.832121277E+02
1.252584189E+01  2.845818787E+02
1.254058269E+01  2.860288391E+02
1.255532348E+01  2.864417725E+02
1.257006427E+01  2.875180969E+02
1.258480506E+01  2.875332642E+02
1.259954585E+01  2.880331421E+02
1.261428665E+01  2.887219543E+02
1.262902744E+01  2.897561340E+02
1.264376823E+01  2.909634399E+02
1.265850902E+01  2.929700012E+02
1.267324982E+01  2.933840942E+02
1.268799061E+01  2.922509460E+02
1.270273140E+01  2.914989624E+02
1.271747219E+01  2.914488831E+02
1.273221298E+01  2.924733582E+02
1.274695378E+01  2.930903320E+02
1.276169457E+01  2.933092346E+02
1.277643536E+01  2.927019653E+02
1.279117615E+01  2.923189392E+02
1.280591694E+01  2.926569519E+02
1.282065774E+01  2.930394897E+02
1.283539853E+01  2.929705505E+02
1.285013932E+01  2.924393311E+02
1.286488011E+01  2.917416992E+02
1.287962091E+01  2.918416443E+02
1.289436170E+01  2.921887207E+02
1.290910249E+01  2.923710022E+02
1.292384328E+01  2.924983826E+02
1.293858407E+01  2.921917114E+02
1.295332487E+01  2.924670410E+02
1.296806566E+01  2.928823853E+02
1.298280645E+01  2.929013977E+02
1.299754724E+01  2.929678345E+02
1.301228803E+01  2.930102234E+02
1.302702883E+01  2.934778748E+02
1.304176962E+01  2.945405884E+02
1.305651041E+01  2.950202942E+02
1.307125120E+01  2.958902283E+02
1.308599199E+01  2.970460510E+02
1.310073279E+01  2.995087585E+02
1.311547358E+01  3.010462341E+02
1.313021437E+01  3.035942993E+02
1.314495516E+01  3.072900696E+02
1.315969596E+01  3.122265625E+02
1.317443675E+01  3.175803833E+02
1.318917754E+01  3.226491394E+02
1.320391833E+01  3.287030334E+02
1.321865912E+01  3.352330322E+02
1.323339992E+01  3.425838928E+02
1.324814071E+01  3.507715149E+02
1.326288150E+01  3.579217224E+02
1.327762229E+01  3.643968201E+02
1.329236308E+01  3.682814636E+02
1.330710388E+01  3.694219055E+02
1.332184467E+01  3.664056396E+02
1.333658546E+01  3.597154541E+02
1.335132625E+01  3.510434265E+02
1.336606704E+01  3.436691895E+02
1.338080784E+01  3.355030823E+02
1.339554863E+01  3.279244995E+02
1.341028942E+01  3.206899414E+02
1.342503021E+01  3.176792297E+02
1.343977101E+01  3.146413879E+02
1.345451180E+01  3.113706055E+02
1.346925259E+01  3.086830444E+02
1.348399338E+01  3.065204773E+02
1.349873417E+01  3.050794678E+02
1.351347497E+01  3.042894897E+02
1.352821576E+01  3.031272278E+02
1.354295655E+01  3.020642090E+02
1.355769734E+01  3.012144775E+02
1.357243813E+01  3.008880615E+02
1.358717893E+01  3.012600403E+02
1.360191972E+01  3.019314270E+02
1.361666051E+01  3.033272095E+02
1.363140130E+01  3.041088867E+02
1.364614209E+01  3.057268982E+02
1.366088289E+01  3.074721375E+02
1.367562368E+01  3.100440674E+02
1.369036447E+01  3.122061462E+02
1.370510526E+01  3.136766663E+02
1.371984606E+01  3.151024170E+02
1.373458685E+01  3.160491333E+02
1.374932764E+01  3.163507996E+02
1.376406843E+01  3.158117981E+02
1.377880922E+01  3.147888184E+02
1.379355002E+01  3.129746704E+02
1.380829081E+01  3.111000366E+02
1.382303160E+01  3.090386658E+02
1.383777239E+01  3.075224609E+02
1.385251318E+01  3.054261475E+02
1.386725398E+01  3.042304993E+02
1.388199477E+01  3.033364258E+02
1.389673556E+01  3.028192444E+02
1.391147635E+01  3.017632446E+02
1.392621715E+01  3.014341431E+02
1.394095794E+01  3.006136169E+02
1.395569873E+01  3.004516296E+02
1.397043952E+01  3.005982056E+02
1.398518031E+01  3.013868408E+02
1.399992111E+01  3.018489685E+02
1.401466190E+01  3.024983826E+02
1.402940269E+01  3.031517944E+02
1.404414348E+01  3.041357117E+02
1.405888427E+01  3.041937256E+02
1.407362507E+01  3.046483154E+02
1.408836586E+01  3.058212891E+02
1.410310665E+01  3.073869934E+02
1.411784744E+01  3.086448364E+02
1.413258823E+01  3.096831970E+02
1.414732903E+01  3.113251953E+02
1.416206982E+01  3.131163940E+02
1.417681061E+01  3.155403748E+02
1.419155140E+01  3.187056885E+02
1.420629220E+01  3.228593140E+02
1.422103299E+01  3.271138916E+02
1.423577378E+01  3.313183899E+02
1.425051457E+01  3.377478943E+02
1.426525536E+01  3.451627808E+02
1.427999616E+01  3.538811035E+02
1.429473695E+01  3.621398926E+02
1.430947774E+01  3.735565491E+02
1.432421853E+01  3.838847351E+02
1.433895932E+01  3.922502136E+02
1.435370012E+01  3.952071533E+02
1.436844091E+01  3.933138733E+02
1.438318170E+01  3.873993835E+02
1.439792249E+01  3.779480896E+02
1.441266328E+01  3.674015503E+02
1.442740408E+01  3.576952820E+02
1.444214487E+01  3.487604370E+02
1.445688566E+01  3.412089539E+02
1.447162645E+01  3.349986877E+02
1.448636725E+01  3.307383423E+02
1.450110804E+01  3.280133667E+02
1.451584883E+01  3.260623779E+02
1.453058962E+01  3.229897461E+02
1.454533041E+01  3.190282593E+02
1.456007121E+01  3.160135498E+02
1.457481200E+01  3.143287964E+02
1.458955279E+01  3.128798828E+02
1.460429358E+01  3.114975891E+02
1.461903437E+01  3.101391602E+02
1.463377517E+01  3.098997803E+02
1.464851596E+01  3.094809875E+02
1.466325675E+01  3.087760315E+02
1.467799754E+01  3.075088806E+02
1.469273833E+01  3.062252502E+02
1.470747913E+01  3.053467712E+02
1.472221992E+01  3.056354980E+02
1.473696071E+01  3.057160950E+02
1.475170150E+01  3.057914429E+02
1.476644230E+01  3.058383179E+02
1.478118309E+01  3.067166443E+02
1.479592388E+01  3.080420837E+02
1.481066467E+01  3.092335205E+02
1.482540546E+01  3.108463440E+02
1.484014626E+01  3.128730164E+02
1.485488705E+01  3.149255066E+02
1.486962784E+01  3.165964661E+02
1.488436863E+01  3.170125732E+02
1.489910942E+01  3.168424988E+02
1.491385022E+01  3.165968628E+02
1.492859101E+01  3.166324768E+02
1.494333180E+01  3.148952637E+02
1.495807259E+01  3.116602173E+02
1.497281339E+01  3.091522522E+02
1.498755418E+01  3.077368774E+02
1.500229497E+01  3.064872131E+02
1.501703576E+01  3.052130737E+02
1.503177655E+01  3.038122559E+02
1.504651735E+01  3.020991211E+02
1.506125814E+01  3.008639221E+02
1.507599893E+01  2.999975281E+02
1.509073972E+01  3.008966064E+02
1.510548051E+01  3.018245850E+02
1.512022131E+01  3.021268921E+02
1.513496210E+01  3.020308533E+02
1.514970289E+01  3.021025391E+02
1.516444368E+01  3.017350159E+02
1.517918447E+01  3.016726379E+02
1.519392527E+01  3.012565308E+02
1.520866606E+01  3.008310852E+02
1.522340685E+01  3.007048950E+02
1.523814764E+01  3.015001221E+02
1.525288844E+01  3.023513489E+02
1.526762923E+01  3.024973450E+02
1.528237002E+01  3.025393372E+02
1.529711081E+01  3.025497437E+02
1.531185160E+01  3.033983459E+02
1.532659240E+01  3.036217346E+02
1.534133319E+01  3.042111511E+02
1.535607398E+01  3.046160583E+02
1.537081477E+01  3.049158936E+02
1.538555556E+01  3.042608643E+02
1.540029636E+01  3.040377502E+02
1.541503715E+01  3.038158569E+02
1.542977794E+01  3.045128479E+02
1.544451873E+01  3.039089050E+02
1.545925952E+01  3.038499756E+02
1.547400032E+01  3.028797302E+02
1.548874111E+01  3.028095093E+02
1.550348190E+01  3.022419128E+02
1.551822269E+01  3.017142944E+02
1.553296349E+01  3.012670898E+02
1.554770428E+01  3.015699768E+02
1.556244507E+01  3.013049622E+02
1.557718586E+01  3.007661438E+02
1.559192665E+01  3.000342102E+02
1.560666745E+01  3.002492371E+02
1.562140824E+01  3.008985291E+02
1.563614903E+01  3.007489014E+02
1.565088982E+01  3.002803650E+02
1.566563061E+01  3.001014404E+02
1.568037141E+01  2.997510681E+02
1.569511220E+01  3.000876770E+02
1.570985299E+01  2.999255676E+02
1.572459378E+01  3.003533936E+02
1.573933457E+01  2.994952393E+02
1.575407537E+01  2.993051453E+02
1.576881616E+01  2.991082458E+02
1.578355695E+01  2.994211731E+02
1.579829774E+01  2.993355408E+02
1.581303854E+01  2.992266846E+02
1.582777933E+01  2.988525085E+02
1.584252012E+01  2.989819031E+02
1.585726091E+01  2.990665588E+02
1.587200170E+01  2.989826050E+02
1.588674250E+01  2.994343262E+02
1.590148329E+01  2.993764648E+02
1.591622408E+01  2.995229492E+02
1.593096487E+01  2.996493835E+02
1.594570566E+01  3.002115479E+02
1.596044646E+01  3.005944824E+02
1.597518725E+01  3.007120361E+02
1.598992804E+01  3.009470215E+02
1.600466883E+01  3.004250793E+02
1.601940963E+01  2.999644470E+02
1.603415042E+01  3.004761658E+02
1.604889121E+01  3.016442871E+02
1.606363200E+01  3.027357788E+02
1.607837279E+01  3.026247253E+02
1.609311359E+01  3.024874878E+02
1.610785438E+01  3.013746643E+02
1.612259517E+01  3.012030945E+02
1.613733596E+01  3.013898926E+02
1.615207675E+01  3.030433350E+02
1.616681755E+01  3.035674438E+02
1.618155834E+01  3.034590759E+02
1.619629913E+01  3.025665894E+02
1.621103992E+01  3.022778931E+02
1.622578071E+01  3.027590637E+02
1.624052151E+01  3.030888367E+02
1.625526230E+01  3.031397095E+02
1.627000309E+01  3.032098389E+02
1.628474388E+01  3.038902283E+02
1.629948468E+01  3.048095093E+02
1.631422547E+01  3.058731384E+02
1.632896626E+01  3.065577698E+02
1.634370705E+01  3.073940430E+02
1.635844784E+01  3.080297852E+02
1.637318864E+01  3.087445984E+02
1.638792943E+01  3.091661987E+02
1.640267022E+01  3.093670349E+02
1.641741101E+01  3.091129456E+02
1.643215180E+01  3.092636719E+02
1.644689260E+01  3.095344543E+02
1.646163339E+01  3.099541626E+02
1.647637418E+01  3.101753540E+02
1.649111497E+01  3.098073120E+02
1.650585576E+01  3.092514038E+02
1.652059656E+01  3.089660950E+02
1.653533735E+01  3.100018616E+02
1.655007814E+01  3.106381531E+02
1.656481893E+01  3.115307312E+02
1.657955973E+01  3.129644165E+02
1.659430052E+01  3.160874329E+02
1.660904131E+01  3.177820435E+02
1.662378210E+01  3.204864502E+02
1.663852289E+01  3.230385132E+02
1.665326369E+01  3.259406128E+02
1.666800448E+01  3.271839294E+02
1.668274527E+01  3.270142212E+02
1.669748606E+01  3.262406006E+02
1.671222685E+01  3.243399353E+02
1.672696765E+01  3.223855591E+02
1.674170844E+01  3.190683594E+02
1.675644923E+01  3.164949341E+02
1.677119002E+01  3.138779907E+02
1.678593081E+01  3.123025818E+02
1.680067161E+01  3.112962952E+02
1.681541240E+01  3.102195435E+02
1.683015319E+01  3.092799072E+02
1.684489398E+01  3.086536560E+02
1.685963478E+01  3.072576599E+02
1.687437557E+01  3.061875916E+02
1.688911636E+01  3.056385498E+02
1.690385715E+01  3.064437256E+02
1.691859794E+01  3.072955322E+02
1.693333874E+01  3.069651794E+02
1.694807953E+01  3.065359802E+02
1.696282032E+01  3.067692871E+02
1.697756111E+01  3.078815308E+02
1.699230190E+01  3.086323547E+02
1.700704270E+01  3.091617126E+02
1.702178349E+01  3.094117126E+02
1.703652428E+01  3.096473083E+02
1.705126507E+01  3.097001648E+02
1.706600587E+01  3.095670471E+02
1.708074666E+01  3.091512451E+02
1.709548745E+01  3.090039062E+02
1.711022824E+01  3.094389954E+02
1.712496903E+01  3.100857239E+02
1.713970983E+01  3.102077026E+02
1.715445062E+01  3.111224365E+02
1.716919141E+01  3.118412170E+02
1.718393220E+01  3.124129028E+02
1.719867299E+01  3.134015503E+02
1.721341379E+01  3.138678589E+02
1.722815458E+01  3.142887878E+02
1.724289537E+01  3.142611084E+02
1.725763616E+01  3.147445068E+02
1.727237695E+01  3.148275146E+02
1.728711775E+01  3.142903748E+02
1.730185854E+01  3.138903503E+02
1.731659933E+01  3.141501160E+02
1.733134012E+01  3.147583313E+02
1.734608092E+01  3.156452942E+02
1.736082171E+01  3.158045654E+02
1.737556250E+01  3.171358643E+02
1.739030329E+01  3.182271729E+02
1.740504408E+01  3.181606750E+02
1.741978488E+01  3.190111084E+02
1.743452567E+01  3.195313416E+02
1.744926646E+01  3.202502441E+02
1.746400725E+01  3.211649475E+02
1.747874804E+01  3.233715515E+02
1.749348884E+01  3.261243591E+02
1.750822963E+01  3.278357239E+02
1.752297042E+01  3.288839417E+02
1.753771121E+01  3.294436035E+02
1.755245200E+01  3.308023682E+02
1.756719280E+01  3.321163940E+02
1.758193359E+01  3.323909302E+02
1.759667438E+01  3.309294434E+02
1.761141517E+01  3.293923645E+02
1.762615597E+01  3.277988281E+02
1.764089676E+01  3.270543518E+02
1.765563755E+01  3.252853088E+02
1.767037834E+01  3.237115784E+02
1.768511913E+01  3.215269470E+02
1.769985993E+01  3.199135437E+02
1.771460072E+01  3.185097046E+02
1.772934151E+01  3.173305969E+02
1.774408230E+01  3.161720581E+02
1.775882309E+01  3.152897339E+02
1.777356389E+01  3.144927063E+02
1.778830468E+01  3.141287231E+02
1.780304547E+01  3.140318909E+02
1.781778626E+01  3.144326477E+02
1.783252705E+01  3.132549438E+02
1.784726785E+01  3.127415161E+02
1.786200864E+01  3.118417358E+02
1.787674943E+01  3.121380920E+02
1.789149022E+01  3.122918396E+02
1.790623102E+01  3.133158569E+02
1.792097181E+01  3.131657410E+02
1.793571260E+01  3.128550720E+02
1.795045339E+01  3.122691956E+02
1.796519418E+01  3.123453979E+02
1.797993498E+01  3.129072876E+02
1.799467577E+01  3.142173157E+02
1.800941656E+01  3.140336304E+02
1.802415735E+01  3.131384277E+02
1.803889814E+01  3.130236206E+02
1.805363894E+01  3.138150635E+02
1.806837973E+01  3.139428406E+02
1.808312052E+01  3.137655029E+02
1.809786131E+01  3.138903503E+02
1.811260211E+01  3.137982178E+02
1.812734290E+01  3.126984253E+02
1.814208369E+01  3.127967224E+02
1.815682448E+01  3.129591370E+02
1.817156527E+01  3.130969543E+02
1.818630607E+01  3.122914429E+02
1.820104686E+01  3.119464111E+02
1.821578765E+01  3.124135437E+02
1.823052844E+01  3.131131897E+02
1.824526923E+01  3.143942871E+02
1.826001003E+01  3.149081116E+02
1.827475082E+01  3.150981140E+02
1.828949161E+01  3.144235535E+02
1.830423240E+01  3.129087219E+02
1.831897319E+01  3.121616211E+02
1.833371399E+01  3.112312927E+02
1.834845478E+01  3.109153442E+02
1.836319557E+01  3.098681946E+02
1.837793636E+01  3.100714417E+02
1.839267716E+01  3.098368835E+02
1.840741795E+01  3.098653564E+02
1.842215874E+01  3.094200134E+02
1.843689953E+01  3.087364197E+02
1.845164032E+01  3.082343140E+02
1.846638112E+01  3.075534668E+02
1.848112191E+01  3.074449158E+02
1.849586270E+01  3.074298706E+02
1.851060349E+01  3.076507263E+02
1.852534428E+01  3.071503601E+02
1.854008508E+01  3.069542542E+02
1.855482587E+01  3.068161621E+02
1.856956666E+01  3.068980713E+02
1.858430745E+01  3.065578918E+02
1.859904824E+01  3.069387207E+02
1.861378904E+01  3.063261414E+02
1.862852983E+01  3.061858215E+02
1.864327062E+01  3.062946472E+02
1.865801141E+01  3.069160767E+02
1.867275221E+01  3.068375549E+02
1.868749300E+01  3.057609558E+02
1.870223379E+01  3.045837708E+02
1.871697458E+01  3.042385254E+02
1.873171537E+01  3.053426819E+02
1.874645617E+01  3.052655029E+02
1.876119696E+01  3.052682495E+02
1.877593775E+01  3.053756409E+02
1.879067854E+01  3.055352478E+02
1.880541933E+01  3.063030396E+02
1.882016013E+01  3.061995239E+02
1.883490092E+01  3.066522217E+02
1.884964171E+01  3.064541626E+02
1.886438250E+01  3.064807129E+02
1.887912329E+01  3.060719299E+02
1.889386409E+01  3.059092712E+02
1.890860488E+01  3.053671570E+02
1.892334567E+01  3.059597473E+02
1.893808646E+01  3.049831543E+02
1.895282726E+01  3.045810242E+02
1.896756805E+01  3.047685242E+02
1.898230884E+01  3.061964722E+02
1.899704963E+01  3.062507019E+02
1.901179042E+01  3.064420776E+02
1.902653122E+01  3.066853333E+02
1.904127201E+01  3.065932007E+02
1.905601280E+01  3.065443420E+02
1.907075359E+01  3.065222168E+02
1.908549438E+01  3.058722839E+02
1.910023518E+01  3.051584473E+02
1.911497597E+01  3.050944519E+02
1.912971676E+01  3.058294067E+02
1.914445755E+01  3.060813904E+02
1.915919834E+01  3.060820007E+02
1.917393914E+01  3.056049194E+02
1.918867993E+01  3.051387024E+02
1.920342072E+01  3.049505920E+02
1.921816151E+01  3.050292053E+02
1.923290231E+01  3.054797058E+02
1.924764310E+01  3.057162476E+02
1.926238389E+01  3.060356140E+02
1.927712468E+01  3.059234314E+02
1.929186547E+01  3.059882812E+02
1.930660627E+01  3.066247559E+02
1.932134706E+01  3.072370300E+02
1.933608785E+01  3.064871826E+02
1.935082864E+01  3.054818726E+02
1.936556943E+01  3.051593323E+02
1.938031023E+01  3.054941101E+02
1.939505102E+01  3.058034058E+02
1.940979181E+01  3.059538574E+02
1.942453260E+01  3.061979675E+02
1.943927340E+01  3.062673340E+02
1.945401419E+01  3.068342896E+02
1.946875498E+01  3.060006714E+02
1.948349577E+01  3.055233459E+02
1.949823656E+01  3.047929382E+02
1.951297736E+01  3.049996948E+02
1.952771815E+01  3.053764954E+02
1.954245894E+01  3.063124084E+02
1.955719973E+01  3.067024231E+02
1.957194052E+01  3.068007812E+02
1.958668132E+01  3.073287048E+02
1.960142211E+01  3.078106995E+02
1.961616290E+01  3.086163025E+02
1.963090369E+01  3.088760376E+02
1.964564448E+01  3.085432739E+02
1.966038528E+01  3.093067322E+02
1.967512607E+01  3.107156067E+02
1.968986686E+01  3.115062256E+02
1.970460765E+01  3.116978455E+02
1.971934845E+01  3.117398987E+02
1.973408924E+01  3.117271118E+02
1.974883003E+01  3.116809082E+02
1.976357082E+01  3.108247986E+02
1.977831161E+01  3.111821289E+02
1.979305241E+01  3.111741333E+02
1.980779320E+01  3.117698364E+02
1.982253399E+01  3.114685669E+02
1.983727478E+01  3.107591858E+02
1.985201557E+01  3.102032471E+02
1.986675637E+01  3.105455322E+02
1.988149716E+01  3.114232178E+02
1.989623795E+01  3.115658875E+02
1.991097874E+01  3.119639893E+02
1.992571953E+01  3.126087952E+02
1.994046033E+01  3.127541809E+02
1.995520112E+01  3.123125916E+02
1.996994191E+01  3.121153870E+02
1.998468270E+01  3.116317444E+02
1.999942350E+01  3.115339661E+02
2.001416429E+01  3.107077026E+02
2.002890508E+01  3.093110046E+02
2.004364587E+01  3.089411011E+02
2.005838666E+01  3.088606262E+02
2.007312746E+01  3.090537415E+02
2.008786825E+01  3.097286377E+02
2.010260904E+01  3.110210266E+02
2.011734983E+01  3.121881714E+02
2.013209062E+01  3.128317566E+02
2.014683142E+01  3.132259521E+02
2.016157221E+01  3.138978882E+02
2.017631300E+01  3.150761108E+02
2.019105379E+01  3.174769592E+02
2.020579458E+01  3.201711121E+02
2.022053538E+01  3.227389526E+02
2.023527617E+01  3.260794067E+02
2.025001696E+01  3.300233765E+02
2.026475775E+01  3.337818298E+02
2.027949855E+01  3.376620483E+02
2.029423934E+01  3.422137146E+02
2.030898013E+01  3.457556152E+02
2.032372092E+01  3.471139832E+02
2.033846171E+01  3.468841553E+02
2.035320251E+01  3.464259033E+02
2.036794330E+01  3.453138733E+02
2.038268409E+01  3.416348267E+02
2.039742488E+01  3.361905212E+02
2.041216567E+01  3.310326233E+02
2.042690647E+01  3.270018311E+02
2.044164726E+01  3.225939941E+02
2.045638805E+01  3.196022034E+02
2.047112884E+01  3.174704285E+02
2.048586964E+01  3.152283325E+02
2.050061043E+01  3.131519470E+02
2.051535122E+01  3.113503113E+02
2.053009201E+01  3.096229553E+02
2.054483280E+01  3.084691162E+02
2.055957360E+01  3.071603699E+02
2.057431439E+01  3.063643188E+02
2.058905518E+01  3.054803162E+02
2.060379597E+01  3.055480347E+02
2.061853676E+01  3.057711792E+02
2.063327756E+01  3.059532776E+02
2.064801835E+01  3.062849731E+02
2.066275914E+01  3.058463745E+02
2.067749993E+01  3.056007385E+02
2.069224072E+01  3.046727905E+02
2.070698152E+01  3.043452148E+02
2.072172231E+01  3.046105957E+02
2.073646310E+01  3.052725525E+02
2.075120389E+01  3.049189758E+02
2.076594469E+01  3.043646851E+02
2.078068548E+01  3.039544067E+02
2.079542627E+01  3.036668091E+02
2.081016706E+01  3.044796143E+02
2.082490785E+01  3.040769043E+02
2.083964865E+01  3.045123291E+02
2.085438944E+01  3.049777222E+02
2.086913023E+01  3.053434448E+02
2.088387102E+01  3.051593018E+02
2.089861181E+01  3.050666504E+02
2.091335261E+01  3.065273438E+02
2.092809340E+01  3.068136292E+02
2.094283419E+01  3.060112915E+02
2.095757498E+01  3.049941101E+02
2.097231577E+01  3.053988342E+02
2.098705657E+01  3.065391846E+02
2.100179736E+01  3.073362427E+02
2.101653815E+01  3.077101440E+02
2.103127894E+01  3.077323303E+02
2.104601974E+01  3.081254272E+02
2.106076053E+01  3.093616333E+02
2.107550132E+01  3.098350525E+02
2.109024211E+01  3.100223389E+02
2.110498290E+01  3.104281921E+02
2.111972370E+01  3.111270447E+02
2.113446449E+01  3.110751648E+02
2.114920528E+01  3.105528259E+02
2.116394607E+01  3.106641235E+02
2.117868686E+01  3.102500916E+02
2.119342766E+01  3.095437622E+02
2.120816845E+01  3.081693115E+02
2.122290924E+01  3.084668579E+02
2.123765003E+01  3.090822449E+02
2.125239082E+01  3.094427185E+02
2.126713162E+01  3.089534302E+02
2.128187241E+01  3.084593811E+02
2.129661320E+01  3.077086182E+02
2.131135399E+01  3.076842346E+02
2.132609479E+01  3.081972046E+02
2.134083558E+01  3.085068359E+02
2.135557637E+01  3.075146790E+02
2.137031716E+01  3.071367188E+02
2.138505795E+01  3.066260376E+02
2.139979875E+01  3.066639404E+02
2.141453954E+01  3.066915283E+02
2.142928033E+01  3.074741516E+02
2.144402112E+01  3.080375977E+02
2.145876191E+01  3.086831970E+02
2.147350271E+01  3.077675781E+02
2.148824350E+01  3.069924316E+02
2.150298429E+01  3.067413635E+02
2.151772508E+01  3.070944824E+02
2.153246588E+01  3.068658752E+02
2.154720667E+01  3.064530029E+02
2.156194746E+01  3.068344116E+02
2.157668825E+01  3.069634094E+02
2.159142904E+01  3.069626160E+02
2.160616984E+01  3.064701843E+02
2.162091063E+01  3.063036804E+02
2.163565142E+01  3.066965027E+02
2.165039221E+01  3.064986572E+02
2.166513300E+01  3.062307434E+02
2.167987380E+01  3.059945984E+02
2.169461459E+01  3.073752747E+02
2.170935538E+01  3.082626648E+02
2.172409617E+01  3.089138489E+02
2.173883696E+01  3.087425232E+02
2.175357776E+01  3.102727966E+02
2.176831855E+01  3.110348206E+02
2.178305934E+01  3.113991089E+02
2.179780013E+01  3.107914734E+02
2.181254093E+01  3.098273926E+02
2.182728172E+01  3.102630615E+02
2.184202251E+01  3.116301880E+02
2.185676330E+01  3.133172913E+02
2.187150409E+01  3.144828186E+02
2.188624489E+01  3.155101318E+02
2.190098568E+01  3.168361206E+02
2.191572647E+01  3.182490234E+02
2.193046726E+01  3.214593811E+02
2.194520805E+01  3.235284729E+02
2.195994885E+01  3.236369629E+02
2.197468964E+01  3.233040771E+02
2.198943043E+01  3.244844360E+02
2.200417122E+01  3.254037170E+02
2.201891201E+01  3.272442322E+02
2.203365281E+01  3.279044495E+02
2.204839360E+01  3.275436096E+02
2.206313439E+01  3.271183472E+02
2.207787518E+01  3.269866638E+02
2.209261598E+01  3.255779419E+02
2.210735677E+01  3.241958923E+02
2.212209756E+01  3.218667297E+02
2.213683835E+01  3.207141724E+02
2.215157914E+01  3.189617004E+02
2.216631994E+01  3.167265320E+02
2.218106073E+01  3.157485962E+02
2.219580152E+01  3.154743347E+02
2.221054231E+01  3.158797607E+02
2.222528310E+01  3.148159180E+02
2.224002390E+01  3.136408081E+02
2.225476469E+01  3.139038086E+02
2.226950548E+01  3.144620667E+02
2.228424627E+01  3.139194336E+02
2.229898706E+01  3.138330994E+02
2.231372786E+01  3.147948303E+02
2.232846865E+01  3.164151611E+02
2.234320944E+01  3.175071106E+02
2.235795023E+01  3.168906250E+02
2.237269103E+01  3.167396545E+02
2.238743182E+01  3.173968506E+02
2.240217261E+01  3.180978088E+02
2.241691340E+01  3.175214233E+02
2.243165419E+01  3.163342285E+02
2.244639499E+01  3.165853577E+02
2.246113578E+01  3.168661499E+02
2.247587657E+01  3.176552734E+02
2.249061736E+01  3.178775940E+02
2.250535815E+01  3.193259277E+02
2.252009895E+01  3.204465027E+02
2.253483974E+01  3.224467468E+02
2.254958053E+01  3.236362915E+02
2.256432132E+01  3.255786743E+02
2.257906212E+01  3.267832336E+02
2.259380291E+01  3.282442017E+02
2.260854370E+01  3.311640015E+02
2.262328449E+01  3.341907349E+02
2.263802528E+01  3.357861633E+02
2.265276608E+01  3.357027893E+02
2.266750687E+01  3.375968323E+02
2.268224766E+01  3.402845459E+02
2.269698845E+01  3.427362366E+02
2.271172924E+01  3.447353516E+02
2.272647004E+01  3.472701721E+02
2.274121083E+01  3.492026062E+02
2.275595162E+01  3.501242981E+02
2.277069241E+01  3.510093384E+02
2.278543320E+01  3.483673401E+02
2.280017400E+01  3.457537537E+02
2.281491479E+01  3.426877441E+02
2.282965558E+01  3.402572632E+02
2.284439637E+01  3.374548950E+02
2.285913717E+01  3.348119812E+02
2.287387796E+01  3.326253357E+02
2.288861875E+01  3.302533875E+02
2.290335954E+01  3.283149414E+02
2.291810033E+01  3.262030640E+02
2.293284113E+01  3.248298340E+02
2.294758192E+01  3.237970276E+02
2.296232271E+01  3.232747498E+02
2.297706350E+01  3.227151794E+02
2.299180429E+01  3.222789612E+02
2.300654509E+01  3.212480774E+02
2.302128588E+01  3.201987000E+02
2.303602667E+01  3.194015198E+02
2.305076746E+01  3.198848877E+02
2.306550825E+01  3.197346497E+02
2.308024905E+01  3.195121155E+02
2.309498984E+01  3.190996399E+02
2.310973063E+01  3.192334595E+02
2.312447142E+01  3.199216309E+02
2.313921222E+01  3.201627502E+02
2.315395301E+01  3.201113892E+02
2.316869380E+01  3.198201599E+02
2.318343459E+01  3.207847595E+02
2.319817538E+01  3.204446716E+02
2.321291618E+01  3.205530701E+02
2.322765697E+01  3.197179565E+02
2.324239776E+01  3.198934021E+02
2.325713855E+01  3.202124329E+02
2.327187934E+01  3.209382019E+02
2.328662014E+01  3.213202209E+02
2.330136093E+01  3.215860596E+02
2.331610172E+01  3.217011719E+02
2.333084251E+01  3.208144531E+02
2.334558330E+01  3.203493347E+02
2.336032410E+01  3.206463928E+02
2.337506489E+01  3.209338684E+02
2.338980568E+01  3.209782104E+02
2.340454647E+01  3.202800903E+02
2.341928727E+01  3.198349304E+02
2.343402806E+01  3.203354797E+02
2.344876885E+01  3.214407959E+02
2.346350964E+01  3.222037354E+02
2.347825043E+01  3.227979431E+02
2.349299123E+01  3.215803833E+02
2.350773202E+01  3.207135315E+02
2.352247281E+01  3.212249146E+02
2.353721360E+01  3.214930115E+02
2.355195439E+01  3.203549805E+02
2.356669519E+01  3.201735840E+02
2.358143598E+01  3.204882812E+02
2.359617677E+01  3.205820923E+02
2.361091756E+01  3.188230896E+02
2.362565836E+01  3.172164917E+02
2.364039915E+01  3.174241028E+02
2.365513994E+01  3.169623718E+02
2.366988073E+01  3.171191101E+02
2.368462152E+01  3.172037964E+02
2.369936232E+01  3.173950806E+02
2.371410311E+01  3.169060364E+02
2.372884390E+01  3.163932800E+02
2.374358469E+01  3.167037354E+02
2.375832548E+01  3.171645203E+02
2.377306628E+01  3.181325989E+02
2.378780707E+01  3.185305481E+02
2.380254786E+01  3.199887085E+02
2.381728865E+01  3.205406189E+02
2.383202944E+01  3.208222961E+02
2.384677024E+01  3.215335693E+02
2.386151103E+01  3.226183472E+02
2.387625182E+01  3.236062012E+02
2.389099261E+01  3.246418457E+02
2.390573341E+01  3.256821289E+02
2.392047420E+01  3.256835022E+02
2.393521499E+01  3.260050964E+02
2.394995578E+01  3.265386047E+02
2.396469657E+01  3.274353638E+02
2.397943737E+01  3.271403809E+02
2.399417816E+01  3.266174622E+02
2.400891895E+01  3.257868652E+02
2.402365974E+01  3.259536133E+02
2.403840053E+01  3.262804871E+02
2.405314133E+01  3.263366394E+02
2.406788212E+01  3.253385620E+02
2.408262291E+01  3.246509094E+02
2.409736370E+01  3.238447876E+02
2.411210449E+01  3.239741516E+02
2.412684529E+01  3.234273987E+02
2.414158608E+01  3.226630859E+02
2.415632687E+01  3.236589966E+02
2.417106766E+01  3.247120056E+02
2.418580846E+01  3.256012573E+02
2.420054925E+01  3.255003967E+02
2.421529004E+01  3.255893555E+02
2.423003083E+01  3.266285706E+02
2.424477162E+01  3.288854370E+02
2.425951242E+01  3.308212891E+02
2.427425321E+01  3.325831299E+02
2.428899400E+01  3.337694702E+02
2.430373479E+01  3.350867310E+02
2.431847558E+01  3.367034912E+02
2.433321638E+01  3.369726868E+02
2.434795717E+01  3.355603027E+02
2.436269796E+01  3.348682556E+02
2.437743875E+01  3.356377563E+02
2.439217954E+01  3.361031799E+02
2.440692034E+01  3.355314331E+02
2.442166113E+01  3.340062256E+02
2.443640192E+01  3.320175476E+02
2.445114271E+01  3.300968323E+02
2.446588351E+01  3.286910095E+02
2.448062430E+01  3.278188477E+02
2.449536509E+01  3.266979370E+02
2.451010588E+01  3.256856384E+02
2.452484667E+01  3.247404785E+02
2.453958747E+01  3.239845581E+02
2.455432826E+01  3.230604858E+02
2.456906905E+01  3.240804138E+02
2.458380984E+01  3.252251892E+02
2.459855063E+01  3.252624207E+02
2.461329143E+01  3.241625671E+02
2.462803222E+01  3.244225769E+02
2.464277301E+01  3.253300476E+02
2.465751380E+01  3.267262268E+02
2.467225460E+01  3.272409363E+02
2.468699539E+01  3.280455627E+02
2.470173618E+01  3.275952148E+02
2.471647697E+01  3.271062317E+02
2.473121776E+01  3.273402100E+02
2.474595856E+01  3.280130005E+02
2.476069935E+01  3.280810852E+02
2.477544014E+01  3.294809875E+02
2.479018093E+01  3.311809082E+02
2.480492172E+01  3.335076294E+02
2.481966252E+01  3.345531921E+02
2.483440331E+01  3.331678467E+02
2.484914410E+01  3.314394836E+02
2.486388489E+01  3.323950500E+02
2.487862568E+01  3.347315674E+02
2.489336648E+01  3.369264526E+02
2.490810727E+01  3.384012756E+02
2.492284806E+01  3.393215942E+02
2.493758885E+01  3.402075806E+02
2.495232965E+01  3.410035095E+02
2.496707044E+01  3.422127686E+02
2.498181123E+01  3.414810181E+02
2.499655202E+01  3.398388977E+02
2.501129281E+01  3.378891907E+02
2.502603361E+01  3.362843933E+02
2.504077440E+01  3.345426025E+02
2.505551519E+01  3.327059021E+02
2.507025598E+01  3.321735840E+02
2.508499677E+01  3.308695679E+02
2.509973757E+01  3.300263977E+02
2.511447836E+01  3.296420593E+02
2.512921915E+01  3.288719788E+02
2.514395994E+01  3.272912903E+02
2.515870073E+01  3.272586975E+02
2.517344153E+01  3.288957520E+02
2.518818232E+01  3.313130493E+02
2.520292311E+01  3.316927185E+02
2.521766390E+01  3.320130005E+02
2.523240470E+01  3.323284302E+02
2.524714549E+01  3.319069214E+02
2.526188628E+01  3.307096252E+02
2.527662707E+01  3.300927124E+02
2.529136786E+01  3.295731201E+02
2.530610866E+01  3.288021545E+02
2.532084945E+01  3.275958252E+02
2.533559024E+01  3.252839355E+02
2.535033103E+01  3.241969604E+02
2.536507182E+01  3.242802124E+02
2.537981262E+01  3.236219788E+02
2.539455341E+01  3.225917969E+02
2.540929420E+01  3.224625244E+02
2.542403499E+01  3.214696045E+02
2.543877578E+01  3.211202698E+02
2.545351658E+01  3.209374390E+02
2.546825737E+01  3.211792908E+02
2.548299816E+01  3.219127502E+02
2.549773895E+01  3.223731079E+02
2.551247975E+01  3.223514709E+02
2.552722054E+01  3.219680786E+02
2.554196133E+01  3.210705566E+02
2.555670212E+01  3.216582336E+02
2.557144291E+01  3.217907104E+02
2.558618371E+01  3.219127197E+02
2.560092450E+01  3.211187744E+02
2.561566529E+01  3.202361755E+02
2.563040608E+01  3.194316101E+02
2.564514687E+01  3.195703430E+02
2.565988767E+01  3.202294922E+02
2.567462846E+01  3.207174988E+02
2.568936925E+01  3.203957214E+02
2.570411004E+01  3.212182312E+02
2.571885084E+01  3.219548035E+02
2.573359163E+01  3.220571289E+02
2.574833242E+01  3.221142883E+02
2.576307321E+01  3.214169617E+02
2.577781400E+01  3.204101868E+02
2.579255480E+01  3.189073486E+02
2.580729559E+01  3.192699890E+02
2.582203638E+01  3.190926208E+02
2.583677717E+01  3.192440186E+02
2.585151796E+01  3.187809143E+02
2.586625876E+01  3.189777527E+02
2.588099955E+01  3.206659851E+02
2.589574034E+01  3.220980530E+02
2.591048113E+01  3.225809937E+02
2.592522192E+01  3.218752747E+02
2.593996272E+01  3.213014221E+02
2.595470351E+01  3.213624878E+02
2.596944430E+01  3.210164490E+02
2.598418509E+01  3.212840271E+02
2.599892589E+01  3.220671692E+02
2.601366668E+01  3.222811279E+02
2.602840747E+01  3.229248962E+02
2.604314826E+01  3.245095825E+02
2.605788905E+01  3.247594910E+02
2.607262985E+01  3.253965759E+02
2.608737064E+01  3.250701599E+02
2.610211143E+01  3.252836304E+02
2.611685222E+01  3.259773865E+02
2.613159301E+01  3.274498901E+02
2.614633381E+01  3.270459290E+02
2.616107460E+01  3.251120605E+02
2.617581539E+01  3.242326050E+02
2.619055618E+01  3.244707947E+02
2.620529697E+01  3.246070862E+02
2.622003777E+01  3.232453003E+02
2.623477856E+01  3.228787842E+02
2.624951935E+01  3.225892334E+02
2.626426014E+01  3.220250244E+02
2.627900094E+01  3.209931335E+02
2.629374173E+01  3.213240967E+02
2.630848252E+01  3.219905396E+02
2.632322331E+01  3.211066284E+02
2.633796410E+01  3.202985535E+02
2.635270490E+01  3.192881775E+02
2.636744569E+01  3.185009766E+02
2.638218648E+01  3.182293396E+02
2.639692727E+01  3.181639099E+02
2.641166806E+01  3.185751343E+02
2.642640886E+01  3.179827576E+02
2.644114965E+01  3.177434998E+02
2.645589044E+01  3.182537231E+02
2.647063123E+01  3.182030945E+02
2.648537202E+01  3.173786316E+02
2.650011282E+01  3.168406982E+02
2.651485361E+01  3.171842346E+02
2.652959440E+01  3.179299316E+02
2.654433519E+01  3.171648865E+02
2.655907599E+01  3.164548035E+02
2.657381678E+01  3.169183655E+02
2.658855757E+01  3.164648438E+02
2.660329836E+01  3.161989746E+02
2.661803915E+01  3.164089050E+02
2.663277995E+01  3.169860840E+02
2.664752074E+01  3.164678955E+02
2.666226153E+01  3.153468628E+02
2.667700232E+01  3.158581238E+02
2.669174311E+01  3.166743469E+02
2.670648391E+01  3.159219055E+02
2.672122470E+01  3.141323853E+02
2.673596549E+01  3.137601624E+02
2.675070628E+01  3.135782776E+02
2.676544707E+01  3.135654602E+02
2.678018787E+01  3.135047913E+02
2.679492866E+01  3.135825195E+02
2.680966945E+01  3.134637146E+02
2.682441024E+01  3.139509583E+02
2.683915104E+01  3.138192139E+02
2.685389183E+01  3.136327515E+02
2.686863262E+01  3.136975708E+02
2.688337341E+01  3.120457153E+02
2.689811420E+01  3.093718262E+02
2.691285500E+01  3.086910095E+02
2.692759579E+01  3.091121216E+02
2.694233658E+01  3.093521118E+02
2.695707737E+01  3.089344788E+02
2.697181816E+01  3.094175110E+02
2.698655896E+01  3.094615173E+02
2.700129975E+01  3.101397095E+02
2.701604054E+01  3.099780884E+02
2.703078133E+01  3.090299377E+02
2.704552213E+01  3.087533875E+02
2.706026292E+01  3.092900391E+02
2.707500371E+01  3.092600708E+02
2.708974450E+01  3.086129150E+02
2.710448529E+01  3.077717590E+02
2.711922609E+01  3.081103210E+02
2.713396688E+01  3.085456848E+02
2.714870767E+01  3.097686157E+02
2.716344846E+01  3.089108582E+02
2.717818925E+01  3.081004028E+02
2.719293005E+01  3.086734619E+02
2.720767084E+01  3.092598267E+02
2.722241163E+01  3.086560974E+02
2.723715242E+01  3.092229614E+02
2.725189321E+01  3.098401794E+02
2.726663401E+01  3.100120544E+02
2.728137480E+01  3.086755371E+02
2.729611559E+01  3.074304504E+02
2.731085638E+01  3.083585205E+02
2.732559718E+01  3.095092163E+02
2.734033797E+01  3.101674805E+02
2.735507876E+01  3.095229797E+02
2.736981955E+01  3.084529419E+02
2.738456034E+01  3.074797668E+02
2.739930114E+01  3.078777161E+02
2.741404193E+01  3.073156738E+02
2.742878272E+01  3.078595886E+02
2.744352351E+01  3.083612976E+02
2.745826430E+01  3.085489807E+02
2.747300510E+01  3.092057800E+02
2.748774589E+01  3.086783142E+02
2.750248668E+01  3.078323059E+02
2.751722747E+01  3.074979553E+02
2.753196826E+01  3.075677490E+02
2.754670906E+01  3.081529236E+02
2.756144985E+01  3.080697632E+02
2.757619064E+01  3.078229065E+02
2.759093143E+01  3.080343018E+02
2.760567223E+01  3.078838806E+02
2.762041302E+01  3.075399780E+02
2.763515381E+01  3.069701538E+02
2.764989460E+01  3.070705872E+02
2.766463539E+01  3.071938171E+02
2.767937619E+01  3.071455383E+02
2.769411698E+01  3.069331055E+02
2.770885777E+01  3.067613831E+02
2.772359856E+01  3.061261597E+02
2.773833935E+01  3.061392822E+02
2.775308015E+01  3.057741699E+02
2.776782094E+01  3.051260071E+02
2.778256173E+01  3.052824402E+02
2.779730252E+01  3.053404236E+02
2.781204331E+01  3.051933899E+02
2.782678411E+01  3.049199829E+02
2.784152490E+01  3.051090088E+02
2.785626569E+01  3.056250305E+02
2.787100648E+01  3.046398926E+02
2.788574728E+01  3.042633972E+02
2.790048807E+01  3.037551270E+02
2.791522886E+01  3.034371643E+02
2.792996965E+01  3.032341919E+02
2.794471044E+01  3.039840698E+02
2.795945124E+01  3.046863708E+02
2.797419203E+01  3.041667175E+02
2.798893282E+01  3.024287109E+02
2.800367361E+01  3.015166016E+02
2.801841440E+01  3.017992554E+02
2.803315520E+01  3.021359253E+02
2.804789599E+01  3.024066772E+02
2.806263678E+01  3.025172729E+02
2.807737757E+01  3.022492065E+02
2.809211837E+01  3.016985779E+02
2.810685916E+01  3.011043396E+02
2.812159995E+01  3.014987183E+02
2.813634074E+01  3.022840881E+02
2.815108153E+01  3.012623291E+02
2.816582233E+01  2.998330994E+02
2.818056312E+01  3.005167236E+02
2.819530391E+01  3.016882019E+02
2.821004470E+01  3.018269653E+02
2.822478549E+01  3.012101440E+02
2.823952629E+01  3.012885742E+02
2.825426708E+01  3.015176392E+02
2.826900787E+01  3.010806274E+02
2.828374866E+01  3.015330505E+02
2.829848945E+01  3.020400696E+02
2.831323025E+01  3.028229065E+02
2.832797104E+01  3.017114563E+02
2.834271183E+01  3.005365601E+02
2.835745262E+01  3.005294495E+02
2.837219342E+01  3.013024597E+02
2.838693421E+01  3.009193420E+02
2.840167500E+01  3.013623352E+02
2.841641579E+01  3.019974976E+02
2.843115658E+01  3.024109497E+02
2.844589738E+01  3.018258972E+02
2.846063817E+01  3.017286682E+02
2.847537896E+01  3.015791931E+02
2.849011975E+01  3.001135254E+02
2.850486054E+01  3.002120667E+02
2.851960134E+01  3.007716675E+02
2.853434213E+01  3.009707642E+02
2.854908292E+01  3.007421875E+02
2.856382371E+01  3.009614563E+02
2.857856450E+01  3.018430786E+02
2.859330530E+01  3.020433044E+02
2.860804609E+01  3.003529663E+02
2.862278688E+01  3.004691772E+02
2.863752767E+01  3.006176453E+02
2.865226847E+01  3.015797729E+02
2.866700926E+01  3.016657410E+02
2.868175005E+01  3.018744507E+02
2.869649084E+01  3.010503540E+02
2.871123163E+01  3.010611572E+02
2.872597243E+01  3.012713928E+02
2.874071322E+01  3.010025940E+02
2.875545401E+01  3.006759033E+02
2.877019480E+01  3.008602600E+02
2.878493559E+01  3.014028931E+02
2.879967639E+01  3.024554443E+02
2.881441718E+01  3.028805237E+02
2.882915797E+01  3.028037415E+02
2.884389876E+01  3.037857971E+02
2.885863955E+01  3.051112976E+02
2.887338035E+01  3.054133606E+02
2.888812114E+01  3.050566101E+02
2.890286193E+01  3.052526550E+02
2.891760272E+01  3.052974243E+02
2.893234352E+01  3.065565796E+02
2.894708431E+01  3.069798279E+02
2.896182510E+01  3.057972717E+02
2.897656589E+01  3.047128906E+02
2.899130668E+01  3.045318909E+02
2.900604748E+01  3.045075684E+02
2.902078827E+01  3.028565674E+02
2.903552906E+01  3.015647583E+02
2.905026985E+01  3.003362122E+02
2.906501064E+01  3.001192017E+02
2.907975144E+01  3.007409973E+02
2.909449223E+01  3.010982361E+02
2.910923302E+01  3.004725647E+02
2.912397381E+01  2.997380371E+02
2.913871461E+01  2.998921814E+02
2.915345540E+01  3.003290405E+02
2.916819619E+01  2.998205261E+02
2.918293698E+01  2.993071594E+02
2.919767777E+01  2.997732544E+02
2.921241857E+01  2.997557373E+02
2.922715936E+01  2.989132690E+02
2.924190015E+01  2.990761108E+02
2.925664094E+01  2.985598755E+02
2.927138173E+01  2.986231384E+02
2.928612253E+01  2.993182983E+02
2.930086332E+01  2.998055725E+02
2.931560411E+01  2.992442322E+02
2.933034490E+01  2.984130249E+02
2.934508569E+01  2.981937866E+02
2.935982649E+01  2.980231018E+02
2.937456728E+01  2.976989441E+02
2.938930807E+01  2.974687500E+02
2.940404886E+01  2.977432251E+02
2.941878966E+01  2.979843140E+02
2.943353045E+01  2.977254944E+02
2.944827124E+01  2.969885254E+02
2.946301203E+01  2.971126099E+02
2.947775282E+01  2.971263733E+02
2.949249362E+01  2.966734924E+02
2.950723441E+01  2.968316650E+02
2.952197520E+01  2.976456604E+02
2.953671599E+01  2.971006775E+02
2.955145678E+01  2.965845337E+02
2.956619758E+01  2.973635559E+02
2.958093837E+01  2.980140686E+02
2.959567916E+01  2.974396667E+02
2.961041995E+01  2.968479614E+02
2.962516074E+01  2.958741150E+02
2.963990154E+01  2.939232788E+02
2.965464233E+01  2.927532349E+02
2.966938312E+01  2.933453674E+02
2.968412391E+01  2.940928650E+02
2.969886471E+01  2.939531860E+02
2.971360550E+01  2.944290161E+02
2.972834629E+01  2.946047058E+02
2.974308708E+01  2.930718994E+02
2.975782787E+01  2.913223572E+02
2.977256867E+01  2.916989441E+02
2.978730946E+01  2.917748413E+02
2.980205025E+01  2.919972229E+02
2.981679104E+01  2.921022339E+02
2.983153183E+01  2.903586121E+02
2.984627263E+01  2.895101318E+02
2.986101342E+01  2.897073364E+02
2.987575421E+01  2.892420044E+02
2.989049500E+01  2.874811401E+02
2.990523579E+01  2.863594666E+02
2.991997659E+01  2.859247131E+02
2.993471738E+01  2.858049927E+02
2.994945817E+01  2.843172607E+02
2.996419896E+01  2.831486511E+02
2.997893976E+01  2.821294861E+02
2.999368055E+01  2.810998840E+02
3.000842134E+01  2.802274475E+02
3.002316213E+01  2.784437561E+02
3.003790292E+01  2.758676147E+02
3.005264372E+01  2.752130737E+02
3.006738451E+01  2.749333191E+02
3.008212530E+01  2.736349487E+02
3.009686609E+01  2.723340759E+02
3.011160688E+01  2.699145813E+02
3.012634768E+01  2.673902588E+02
3.014108847E+01  2.662725830E+02
3.015582926E+01  2.646498718E+02
3.017057005E+01  2.628498840E+02
3.018531085E+01  2.608208618E+02
3.020005164E+01  2.581735840E+02
3.021479243E+01  2.553456268E+02
3.022953322E+01  2.521246948E+02
3.024427401E+01  2.489082794E+02
3.025901481E+01  2.455294189E+02
3.027375560E+01  2.427711639E+02
3.028849639E+01  2.387375488E+02
3.030323718E+01  2.352002563E+02
3.031797797E+01  2.326783295E+02
3.033271877E+01  2.308344879E+02
3.034745956E+01  2.289114532E+02
3.036220035E+01  2.263562622E+02
3.037694114E+01  2.238231659E+02
3.039168193E+01  2.230595093E+02
3.040642273E+01  2.221120148E+02
3.042116352E+01  2.215701752E+02
3.043590431E+01  2.201340790E+02
3.045064510E+01  2.177002411E+02
3.046538590E+01  2.156208191E+02
3.048012669E+01  2.141219177E+02
3.049486748E+01  2.135446014E+02
3.050960827E+01  2.124323730E+02
3.052434906E+01  2.107468567E+02
3.053908986E+01  2.087592163E+02
3.055383065E+01  2.069111328E+02
3.056857144E+01  2.049591675E+02
3.058331223E+01  2.035579529E+02
3.059805302E+01  2.018779602E+02
3.061279382E+01  1.999764862E+02
3.062753461E+01  1.985307159E+02
3.064227540E+01  1.970225830E+02
3.065701619E+01  1.958864899E+02
3.067175698E+01  1.944869385E+02
3.068649778E+01  1.937617645E+02
3.070123857E+01  1.920199738E+02
3.071597936E+01  1.899026794E+02
3.073072015E+01  1.887333221E+02
3.074546095E+01  1.871364441E+02
3.076020174E+01  1.846564178E+02
3.077494253E+01  1.827900848E+02
3.078968332E+01  1.809284515E+02
3.080442411E+01  1.794289703E+02
3.081916491E+01  1.781788483E+02
3.083390570E+01  1.769133301E+02
3.084864649E+01  1.753847656E+02
3.086338728E+01  1.731313171E+02
3.087812807E+01  1.710567627E+02
3.089286887E+01  1.688749542E+02
3.090760966E+01  1.670725250E+02
3.092235045E+01  1.650469208E+02
3.093709124E+01  1.639354248E+02
3.095183203E+01  1.627487488E+02
3.096657283E+01  1.613337097E+02
3.098131362E+01  1.600827484E+02
3.099605441E+01  1.586036377E+02
3.101079520E+01  1.562571106E+02
3.102553600E+01  1.542954559E+02
3.104027679E+01  1.526610565E+02
3.105501758E+01  1.515923462E+02
3.106975837E+01  1.506456299E+02
3.108449916E+01  1.492430115E+02
3.109923996E+01  1.469885864E+02
3.111398075E+01  1.449340210E+02
3.112872154E+01  1.432386475E+02
3.114346233E+01  1.422283020E+02
3.115820312E+01  1.409262848E+02
3.117294392E+01  1.390521088E+02
3.118768471E+01  1.374711151E+02
3.120242550E+01  1.357296753E+02
3.121716629E+01  1.344193726E+02
3.123190709E+01  1.322036285E+02
3.124664788E+01  1.306595306E+02
3.126138867E+01  1.293244171E+02
3.127612946E+01  1.275431366E+02
3.129087025E+01  1.258896255E+02
3.130561105E+01  1.248802643E+02
3.132035184E+01  1.233534622E+02
3.133509263E+01  1.209342651E+02
3.134983342E+01  1.187027664E+02
3.136457421E+01  1.164668274E+02
3.137931501E+01  1.142459793E+02
3.139405580E+01  1.129262543E+02
3.140879659E+01  1.123918839E+02
3.142353738E+01  1.109447174E+02
3.143827817E+01  1.096098557E+02
3.145301897E+01  1.085643616E+02
3.146775976E+01  1.068945847E+02
3.148250055E+01  1.054751740E+02
3.149724134E+01  1.038664474E+02
3.151198214E+01  1.023958054E+02
3.152672293E+01  1.016388016E+02
3.154146372E+01  1.003811340E+02
3.155620451E+01  9.834143066E+01
3.157094530E+01  9.677027893E+01
3.158568610E+01  9.528649902E+01
3.160042689E+01  9.399530792E+01
3.161516768E+01  9.308782959E+01
3.162990847E+01  9.170859528E+01
3.164464926E+01  9.043357849E+01
3.165939006E+01  8.919857025E+01
3.167413085E+01  8.723059845E+01
3.168887164E+01  8.422655487E+01
3.170361243E+01  8.275582123E+01
3.171835322E+01  8.232128143E+01
3.173309402E+01  7.993152618E+01
3.174783481E+01  7.815058136E+01
3.176257560E+01  7.709078217E+01
3.177731639E+01  7.621800232E+01
3.179205719E+01  7.553927612E+01
3.180679798E+01  7.305973816E+01
3.182153877E+01  7.153356934E+01
3.183627956E+01  7.080393219E+01
3.185102035E+01  7.212758636E+01
3.186576115E+01  7.154082489E+01
3.188050194E+01  6.747293091E+01
3.189524273E+01  6.287028122E+01
3.190998352E+01  6.183234787E+01
3.192472431E+01  6.485201263E+01
3.193946511E+01  6.461253357E+01
3.195420590E+01  6.205152893E+01
3.196894669E+01  6.141146469E+01
3.198368748E+01  5.672189713E+01
3.199842827E+01  5.699766922E+01
3.201316907E+01  5.560332108E+01
3.202790986E+01  4.311172485E+01
3.204265065E+01  4.311172485E+01
3.205739144E+01  3.764566040E+01
3.207213224E+01  4.100950623E+01
3.208687303E+01  4.242974472E+01
