# == pyFAI calibration ==
# Distance Sample to Detector: 0.11507480176033233 m
# PONI: 5.477e-03, 4.716e-03 m
# Rotations: 0.004686 0.005536 0.000000 rad
# 
# == Fit2d calibration ==
# Distance Sample-beamCenter: 115.078 mm
# Center: x=55.690, y=81.516 pix
# Tilt: 0.416 deg  TiltPlanRot: 130.247 deg
# 
# Detector Detector	 Spline= None	 PixelSize= 7.500e-05, 7.500e-05 m
#    Detector has a mask: False 
#    Detector has a dark current: False 
#    detector has a flat field: False 
# 
# Wavelength: 4.833e-11 m
# Mask applied: None
# Dark current applied: None
# Flat field applied: None
# Polarization factor: None
# Normalization factor: None
#
# 2th_deg	 I
1.131209591E+00  6.790821838E+01
1.145950384E+00  7.581006622E+01
1.160691176E+00  9.209605408E+01
1.175431968E+00  1.009376526E+02
1.190172760E+00  1.140889893E+02
1.204913552E+00  1.237089539E+02
1.219654344E+00  1.350684662E+02
1.234395136E+00  1.408970947E+02
1.249135928E+00  1.477173157E+02
1.263876720E+00  1.586023865E+02
1.278617513E+00  1.657783051E+02
1.293358305E+00  1.707068176E+02
1.308099097E+00  1.724856873E+02
1.322839889E+00  1.783466644E+02
1.337580681E+00  1.831392365E+02
1.352321473E+00  1.854927673E+02
1.367062265E+00  1.885294495E+02
1.381803057E+00  1.902303009E+02
1.396543850E+00  1.947258911E+02
1.411284642E+00  1.971818237E+02
1.426025434E+00  1.982183228E+02
1.440766226E+00  2.014980621E+02
1.455507018E+00  2.034989319E+02
1.470247810E+00  2.056304779E+02
1.484988602E+00  2.084703217E+02
1.499729394E+00  2.099670868E+02
1.514470186E+00  2.134313812E+02
1.529210979E+00  2.152985687E+02
1.543951771E+00  2.166986084E+02
1.558692563E+00  2.189851990E+02
1.573433355E+00  2.219568329E+02
1.588174147E+00  2.235046387E+02
1.602914939E+00  2.240266724E+02
1.617655731E+00  2.258328705E+02
1.632396523E+00  2.284142761E+02
1.647137315E+00  2.325415192E+02
1.661878108E+00  2.349163666E+02
1.676618900E+00  2.324686584E+02
1.691359692E+00  2.321194916E+02
1.706100484E+00  2.334664917E+02
1.720841276E+00  2.363384857E+02
1.735582068E+00  2.377041931E+02
1.750322860E+00  2.395800476E+02
1.765063652E+00  2.380106964E+02
1.779804444E+00  2.387139130E+02
1.794545237E+00  2.386695099E+02
1.809286029E+00  2.412218170E+02
1.824026821E+00  2.436143646E+02
1.838767613E+00  2.434597626E+02
1.853508405E+00  2.445585632E+02
1.868249197E+00  2.439460144E+02
1.882989989E+00  2.451721497E+02
1.897730781E+00  2.453687286E+02
1.912471573E+00  2.460205078E+02
1.927212366E+00  2.484133759E+02
1.941953158E+00  2.501174622E+02
1.956693950E+00  2.522402496E+02
1.971434742E+00  2.543000488E+02
1.986175534E+00  2.553294067E+02
2.000916326E+00  2.565306396E+02
2.015657118E+00  2.567689514E+02
2.030397910E+00  2.586091614E+02
2.045138702E+00  2.612098389E+02
2.059879495E+00  2.624685974E+02
2.074620287E+00  2.640870361E+02
2.089361079E+00  2.652655640E+02
2.104101871E+00  2.667237854E+02
2.118842663E+00  2.681252136E+02
2.133583455E+00  2.683821411E+02
2.148324247E+00  2.711191406E+02
2.163065039E+00  2.714409180E+02
2.177805831E+00  2.725612183E+02
2.192546624E+00  2.738290710E+02
2.207287416E+00  2.742727356E+02
2.222028208E+00  2.760335999E+02
2.236769000E+00  2.762683411E+02
2.251509792E+00  2.769107056E+02
2.266250584E+00  2.766326294E+02
2.280991376E+00  2.767531128E+02
2.295732168E+00  2.773286743E+02
2.310472960E+00  2.773389893E+02
2.325213753E+00  2.779888916E+02
2.339954545E+00  2.781177368E+02
2.354695337E+00  2.794944458E+02
2.369436129E+00  2.802624512E+02
2.384176921E+00  2.812787476E+02
2.398917713E+00  2.820498352E+02
2.413658505E+00  2.831269531E+02
2.428399297E+00  2.838656921E+02
2.443140089E+00  2.830307617E+02
2.457880882E+00  2.821208191E+02
2.472621674E+00  2.825707703E+02
2.487362466E+00  2.817311707E+02
2.502103258E+00  2.823025818E+02
2.516844050E+00  2.821585999E+02
2.531584842E+00  2.820851135E+02
2.546325634E+00  2.825490723E+02
2.561066426E+00  2.827650146E+02
2.575807219E+00  2.833623047E+02
2.590548011E+00  2.835537415E+02
2.605288803E+00  2.835249023E+02
2.620029595E+00  2.831947937E+02
2.634770387E+00  2.815519714E+02
2.649511179E+00  2.814868774E+02
2.664251971E+00  2.815326233E+02
2.678992763E+00  2.818779907E+02
2.693733555E+00  2.814619141E+02
2.708474348E+00  2.800635376E+02
2.723215140E+00  2.802055664E+02
2.737955932E+00  2.807849121E+02
2.752696724E+00  2.813644409E+02
2.767437516E+00  2.810279541E+02
2.782178308E+00  2.800559082E+02
2.796919100E+00  2.787006836E+02
2.811659892E+00  2.784893494E+02
2.826400684E+00  2.783412476E+02
2.841141477E+00  2.782954102E+02
2.855882269E+00  2.778341064E+02
2.870623061E+00  2.774365540E+02
2.885363853E+00  2.772026367E+02
2.900104645E+00  2.765121155E+02
2.914845437E+00  2.763076172E+02
2.929586229E+00  2.765639648E+02
2.944327021E+00  2.769054871E+02
2.959067813E+00  2.765020447E+02
2.973808606E+00  2.764291992E+02
2.988549398E+00  2.758188171E+02
3.003290190E+00  2.751922302E+02
3.018030982E+00  2.750863953E+02
3.032771774E+00  2.748219604E+02
3.047512566E+00  2.758220520E+02
3.062253358E+00  2.757955322E+02
3.076994150E+00  2.757368469E+02
3.091734942E+00  2.750921021E+02
3.106475735E+00  2.746231995E+02
3.121216527E+00  2.750301208E+02
3.135957319E+00  2.745687561E+02
3.150698111E+00  2.746793823E+02
3.165438903E+00  2.736985779E+02
3.180179695E+00  2.739188538E+02
3.194920487E+00  2.751881409E+02
3.209661279E+00  2.756945496E+02
3.224402071E+00  2.755522461E+02
3.239142864E+00  2.748163757E+02
3.253883656E+00  2.733989868E+02
3.268624448E+00  2.733378601E+02
3.283365240E+00  2.729999084E+02
3.298106032E+00  2.733841553E+02
3.312846824E+00  2.734297180E+02
3.327587616E+00  2.737644653E+02
3.342328408E+00  2.733120422E+02
3.357069200E+00  2.735943298E+02
3.371809993E+00  2.731263733E+02
3.386550785E+00  2.723721008E+02
3.401291577E+00  2.714025879E+02
3.416032369E+00  2.715191040E+02
3.430773161E+00  2.720436401E+02
3.445513953E+00  2.716671448E+02
3.460254745E+00  2.708875732E+02
3.474995537E+00  2.699026184E+02
3.489736329E+00  2.698595581E+02
3.504477122E+00  2.709061279E+02
3.519217914E+00  2.707542725E+02
3.533958706E+00  2.705185547E+02
3.548699498E+00  2.699112244E+02
3.563440290E+00  2.683107910E+02
3.578181082E+00  2.678612671E+02
3.592921874E+00  2.684332581E+02
3.607662666E+00  2.690833740E+02
3.622403458E+00  2.687953186E+02
3.637144251E+00  2.679098206E+02
3.651885043E+00  2.664977112E+02
3.666625835E+00  2.652158203E+02
3.681366627E+00  2.639548035E+02
3.696107419E+00  2.634201965E+02
3.710848211E+00  2.635331726E+02
3.725589003E+00  2.654081726E+02
3.740329795E+00  2.669099121E+02
3.755070587E+00  2.680078125E+02
3.769811380E+00  2.685131531E+02
3.784552172E+00  2.686911011E+02
3.799292964E+00  2.691342773E+02
3.814033756E+00  2.712877197E+02
3.828774548E+00  2.727671509E+02
3.843515340E+00  2.748329468E+02
3.858256132E+00  2.763346863E+02
3.872996924E+00  2.772113953E+02
3.887737717E+00  2.752094116E+02
3.902478509E+00  2.736421204E+02
3.917219301E+00  2.718058472E+02
3.931960093E+00  2.700485229E+02
3.946700885E+00  2.682797546E+02
3.961441677E+00  2.672041931E+02
3.976182469E+00  2.667289429E+02
3.990923261E+00  2.667224426E+02
4.005664053E+00  2.664342346E+02
4.020404846E+00  2.646346436E+02
4.035145638E+00  2.625826111E+02
4.049886430E+00  2.613740234E+02
4.064627222E+00  2.596810303E+02
4.079368014E+00  2.594408569E+02
4.094108806E+00  2.584047852E+02
4.108849598E+00  2.591163025E+02
4.123590390E+00  2.585884705E+02
4.138331182E+00  2.582319336E+02
4.153071975E+00  2.564659119E+02
4.167812767E+00  2.549049988E+02
4.182553559E+00  2.538897705E+02
4.197294351E+00  2.552156830E+02
4.212035143E+00  2.554712372E+02
4.226775935E+00  2.546009979E+02
4.241516727E+00  2.538015442E+02
4.256257519E+00  2.527868652E+02
4.270998311E+00  2.527529755E+02
4.285739104E+00  2.518822632E+02
4.300479896E+00  2.516121521E+02
4.315220688E+00  2.508126831E+02
4.329961480E+00  2.507136536E+02
4.344702272E+00  2.504776306E+02
4.359443064E+00  2.490169373E+02
4.374183856E+00  2.478720856E+02
4.388924648E+00  2.464670258E+02
4.403665440E+00  2.463446045E+02
4.418406233E+00  2.462332458E+02
4.433147025E+00  2.462051697E+02
4.447887817E+00  2.466200562E+02
4.462628609E+00  2.462922668E+02
4.477369401E+00  2.463356171E+02
4.492110193E+00  2.446595459E+02
4.506850985E+00  2.436883850E+02
4.521591777E+00  2.431566315E+02
4.536332569E+00  2.430583801E+02
4.551073362E+00  2.431335449E+02
4.565814154E+00  2.430062103E+02
4.580554946E+00  2.433025665E+02
4.595295738E+00  2.430782166E+02
4.610036530E+00  2.426088257E+02
4.624777322E+00  2.419522095E+02
4.639518114E+00  2.409644318E+02
4.654258906E+00  2.406361847E+02
4.668999698E+00  2.406822968E+02
4.683740491E+00  2.414545898E+02
4.698481283E+00  2.412747955E+02
4.713222075E+00  2.401789551E+02
4.727962867E+00  2.396200867E+02
4.742703659E+00  2.390690613E+02
4.757444451E+00  2.393607025E+02
4.772185243E+00  2.392669983E+02
4.786926035E+00  2.395069885E+02
4.801666827E+00  2.391580200E+02
4.816407620E+00  2.387867584E+02
4.831148412E+00  2.385380707E+02
4.845889204E+00  2.375653076E+02
4.860629996E+00  2.371681519E+02
4.875370788E+00  2.363597565E+02
4.890111580E+00  2.365844116E+02
4.904852372E+00  2.367489166E+02
4.919593164E+00  2.372649384E+02
4.934333956E+00  2.377425385E+02
4.949074749E+00  2.365417175E+02
4.963815541E+00  2.357709808E+02
4.978556333E+00  2.350371094E+02
4.993297125E+00  2.352832031E+02
5.008037917E+00  2.359218597E+02
5.022778709E+00  2.357518158E+02
5.037519501E+00  2.360961914E+02
5.052260293E+00  2.359390411E+02
5.067001086E+00  2.355757446E+02
5.081741878E+00  2.350455780E+02
5.096482670E+00  2.340910797E+02
5.111223462E+00  2.337485809E+02
5.125964254E+00  2.332069550E+02
5.140705046E+00  2.338275757E+02
5.155445838E+00  2.333354492E+02
5.170186630E+00  2.330895691E+02
5.184927422E+00  2.324507141E+02
5.199668215E+00  2.324253235E+02
5.214409007E+00  2.326716309E+02
5.229149799E+00  2.323445587E+02
5.243890591E+00  2.319734955E+02
5.258631383E+00  2.314536438E+02
5.273372175E+00  2.320163574E+02
5.288112967E+00  2.312853241E+02
5.302853759E+00  2.304880676E+02
5.317594551E+00  2.302025146E+02
5.332335344E+00  2.303404846E+02
5.347076136E+00  2.300529480E+02
5.361816928E+00  2.303974609E+02
5.376557720E+00  2.307736206E+02
5.391298512E+00  2.303432312E+02
5.406039304E+00  2.305796661E+02
5.420780096E+00  2.296556702E+02
5.435520888E+00  2.297766113E+02
5.450261680E+00  2.292073669E+02
5.465002473E+00  2.290115814E+02
5.479743265E+00  2.289180145E+02
5.494484057E+00  2.292643280E+02
5.509224849E+00  2.288585052E+02
5.523965641E+00  2.288148651E+02
5.538706433E+00  2.287885132E+02
5.553447225E+00  2.287514191E+02
5.568188017E+00  2.288750000E+02
5.582928809E+00  2.281375732E+02
5.597669602E+00  2.283236389E+02
5.612410394E+00  2.287869568E+02
5.627151186E+00  2.289861908E+02
5.641891978E+00  2.290954132E+02
5.656632770E+00  2.297044220E+02
5.671373562E+00  2.292821960E+02
5.686114354E+00  2.290889893E+02
5.700855146E+00  2.287052612E+02
5.715595938E+00  2.292994690E+02
5.730336731E+00  2.299902802E+02
5.745077523E+00  2.306916656E+02
5.759818315E+00  2.316737518E+02
5.774559107E+00  2.314605560E+02
5.789299899E+00  2.319884949E+02
5.804040691E+00  2.315290985E+02
5.818781483E+00  2.307024231E+02
5.833522275E+00  2.293827057E+02
5.848263067E+00  2.281423035E+02
5.863003860E+00  2.280846405E+02
5.877744652E+00  2.279195251E+02
5.892485444E+00  2.285886230E+02
5.907226236E+00  2.284698181E+02
5.921967028E+00  2.287333069E+02
5.936707820E+00  2.286051941E+02
5.951448612E+00  2.285891876E+02
5.966189404E+00  2.285044708E+02
5.980930196E+00  2.279329529E+02
5.995670989E+00  2.272816162E+02
6.010411781E+00  2.266902313E+02
6.025152573E+00  2.275003510E+02
6.039893365E+00  2.277050476E+02
6.054634157E+00  2.281238861E+02
6.069374949E+00  2.280550079E+02
6.084115741E+00  2.279834900E+02
6.098856533E+00  2.280260010E+02
6.113597325E+00  2.270847626E+02
6.128338118E+00  2.262635345E+02
6.143078910E+00  2.261881714E+02
6.157819702E+00  2.270037842E+02
6.172560494E+00  2.283416138E+02
6.187301286E+00  2.281921539E+02
6.202042078E+00  2.279263458E+02
6.216782870E+00  2.276392517E+02
6.231523662E+00  2.282421570E+02
6.246264454E+00  2.281035919E+02
6.261005247E+00  2.276591797E+02
6.275746039E+00  2.283288879E+02
6.290486831E+00  2.283590088E+02
6.305227623E+00  2.291037445E+02
6.319968415E+00  2.285122070E+02
6.334709207E+00  2.281239471E+02
6.349449999E+00  2.277835388E+02
6.364190791E+00  2.282152710E+02
6.378931584E+00  2.286519318E+02
6.393672376E+00  2.289199829E+02
6.408413168E+00  2.289294281E+02
6.423153960E+00  2.287745972E+02
6.437894752E+00  2.286858215E+02
6.452635544E+00  2.283678741E+02
6.467376336E+00  2.282256927E+02
6.482117128E+00  2.288986053E+02
6.496857920E+00  2.301486053E+02
6.511598713E+00  2.308501892E+02
6.526339505E+00  2.310885468E+02
6.541080297E+00  2.307017670E+02
6.555821089E+00  2.312574768E+02
6.570561881E+00  2.314853973E+02
6.585302673E+00  2.317845459E+02
6.600043465E+00  2.318767700E+02
6.614784257E+00  2.317189789E+02
6.629525049E+00  2.315415039E+02
6.644265842E+00  2.311504669E+02
6.659006634E+00  2.304288025E+02
6.673747426E+00  2.304588776E+02
6.688488218E+00  2.305847931E+02
6.703229010E+00  2.305402832E+02
6.717969802E+00  2.305783691E+02
6.732710594E+00  2.311408234E+02
6.747451386E+00  2.309697571E+02
6.762192178E+00  2.314044342E+02
6.776932971E+00  2.315404968E+02
6.791673763E+00  2.309177399E+02
6.806414555E+00  2.313177795E+02
6.821155347E+00  2.316221161E+02
6.835896139E+00  2.322428284E+02
6.850636931E+00  2.322738190E+02
6.865377723E+00  2.323507690E+02
6.880118515E+00  2.321428070E+02
6.894859307E+00  2.319858398E+02
6.909600100E+00  2.324307556E+02
6.924340892E+00  2.332441254E+02
6.939081684E+00  2.333124084E+02
6.953822476E+00  2.330838318E+02
6.968563268E+00  2.323856964E+02
6.983304060E+00  2.323737030E+02
6.998044852E+00  2.327181244E+02
7.012785644E+00  2.331189880E+02
7.027526436E+00  2.339599457E+02
7.042267229E+00  2.342288971E+02
7.057008021E+00  2.343817444E+02
7.071748813E+00  2.343188477E+02
7.086489605E+00  2.340388031E+02
7.101230397E+00  2.342971191E+02
7.115971189E+00  2.347777710E+02
7.130711981E+00  2.352396698E+02
7.145452773E+00  2.348884888E+02
7.160193565E+00  2.346975403E+02
7.174934358E+00  2.337573395E+02
7.189675150E+00  2.338640137E+02
7.204415942E+00  2.340669708E+02
7.219156734E+00  2.344015045E+02
7.233897526E+00  2.336849213E+02
7.248638318E+00  2.336883545E+02
7.263379110E+00  2.345675507E+02
7.278119902E+00  2.349441071E+02
7.292860694E+00  2.348787842E+02
7.307601487E+00  2.349157562E+02
7.322342279E+00  2.353367767E+02
7.337083071E+00  2.356956024E+02
7.351823863E+00  2.358633118E+02
7.366564655E+00  2.358008118E+02
7.381305447E+00  2.362226562E+02
7.396046239E+00  2.361646423E+02
7.410787031E+00  2.362317352E+02
7.425527823E+00  2.359322205E+02
7.440268616E+00  2.360784607E+02
7.455009408E+00  2.367164307E+02
7.469750200E+00  2.371262512E+02
7.484490992E+00  2.375141144E+02
7.499231784E+00  2.380007935E+02
7.513972576E+00  2.380559692E+02
7.528713368E+00  2.384529724E+02
7.543454160E+00  2.378221436E+02
7.558194953E+00  2.386886902E+02
7.572935745E+00  2.387353210E+02
7.587676537E+00  2.394532166E+02
7.602417329E+00  2.397793427E+02
7.617158121E+00  2.393893890E+02
7.631898913E+00  2.388386993E+02
7.646639705E+00  2.392905731E+02
7.661380497E+00  2.396008453E+02
7.676121289E+00  2.400725555E+02
7.690862082E+00  2.396079254E+02
7.705602874E+00  2.400693512E+02
7.720343666E+00  2.397219238E+02
7.735084458E+00  2.403224945E+02
7.749825250E+00  2.401223145E+02
7.764566042E+00  2.400631866E+02
7.779306834E+00  2.403627167E+02
7.794047626E+00  2.410233459E+02
7.808788418E+00  2.415937500E+02
7.823529211E+00  2.420846252E+02
7.838270003E+00  2.409026184E+02
7.853010795E+00  2.409402008E+02
7.867751587E+00  2.409820404E+02
7.882492379E+00  2.418157196E+02
7.897233171E+00  2.420996094E+02
7.911973963E+00  2.423473816E+02
7.926714755E+00  2.429135437E+02
7.941455547E+00  2.433545837E+02
7.956196340E+00  2.435112762E+02
7.970937132E+00  2.434822235E+02
7.985677924E+00  2.438518524E+02
8.000418716E+00  2.449806061E+02
8.015159508E+00  2.461863708E+02
8.029900300E+00  2.467646484E+02
8.044641092E+00  2.462680206E+02
8.059381884E+00  2.463699036E+02
8.074122676E+00  2.469940338E+02
8.088863469E+00  2.480378265E+02
8.103604261E+00  2.482951813E+02
8.118345053E+00  2.486261749E+02
8.133085845E+00  2.493945007E+02
8.147826637E+00  2.503108368E+02
8.162567429E+00  2.505839386E+02
8.177308221E+00  2.508131104E+02
8.192049013E+00  2.525694885E+02
8.206789805E+00  2.536718597E+02
8.221530598E+00  2.546084442E+02
8.236271390E+00  2.560297546E+02
8.251012182E+00  2.573425293E+02
8.265752974E+00  2.595548096E+02
8.280493766E+00  2.610691528E+02
8.295234558E+00  2.648832092E+02
8.309975350E+00  2.688639526E+02
8.324716142E+00  2.743450928E+02
8.339456934E+00  2.766635437E+02
8.354197727E+00  2.785087280E+02
8.368938519E+00  2.809240112E+02
8.383679311E+00  2.856240234E+02
8.398420103E+00  2.904209900E+02
8.413160895E+00  2.974444885E+02
8.427901687E+00  3.038063049E+02
8.442642479E+00  3.114939270E+02
8.457383271E+00  3.168652954E+02
8.472124063E+00  3.246038513E+02
8.486864856E+00  3.329478149E+02
8.501605648E+00  3.428530579E+02
8.516346440E+00  3.530342407E+02
8.531087232E+00  3.603793030E+02
8.545828024E+00  3.617156677E+02
8.560568816E+00  3.581046448E+02
8.575309608E+00  3.492152710E+02
8.590050400E+00  3.375555420E+02
8.604791192E+00  3.256858215E+02
8.619531985E+00  3.140387878E+02
8.634272777E+00  3.045601501E+02
8.649013569E+00  2.975342712E+02
8.663754361E+00  2.905757751E+02
8.678495153E+00  2.853648987E+02
8.693235945E+00  2.816280212E+02
8.707976737E+00  2.788783569E+02
8.722717529E+00  2.768972778E+02
8.737458321E+00  2.729811707E+02
8.752199114E+00  2.722658081E+02
8.766939906E+00  2.730382996E+02
8.781680698E+00  2.748505249E+02
8.796421490E+00  2.759992981E+02
8.811162282E+00  2.759783020E+02
8.825903074E+00  2.758124084E+02
8.840643866E+00  2.754015198E+02
8.855384658E+00  2.753935852E+02
8.870125451E+00  2.750606384E+02
8.884866243E+00  2.751375427E+02
8.899607035E+00  2.758344116E+02
8.914347827E+00  2.769512939E+02
8.929088619E+00  2.779397888E+02
8.943829411E+00  2.792454834E+02
8.958570203E+00  2.808509216E+02
8.973310995E+00  2.816945496E+02
8.988051787E+00  2.818100891E+02
9.002792580E+00  2.819003296E+02
9.017533372E+00  2.825623779E+02
9.032274164E+00  2.838713684E+02
9.047014956E+00  2.839020081E+02
9.061755748E+00  2.848486633E+02
9.076496540E+00  2.845576477E+02
9.091237332E+00  2.847568665E+02
9.105978124E+00  2.849971924E+02
9.120718916E+00  2.854078979E+02
9.135459709E+00  2.854966736E+02
9.150200501E+00  2.858412476E+02
9.164941293E+00  2.864518738E+02
9.179682085E+00  2.871817932E+02
9.194422877E+00  2.876531067E+02
9.209163669E+00  2.884124146E+02
9.223904461E+00  2.895695190E+02
9.238645253E+00  2.909620972E+02
9.253386045E+00  2.918866882E+02
9.268126838E+00  2.923400574E+02
9.282867630E+00  2.925564880E+02
9.297608422E+00  2.930763855E+02
9.312349214E+00  2.933254089E+02
9.327090006E+00  2.942076721E+02
9.341830798E+00  2.941215210E+02
9.356571590E+00  2.944796143E+02
9.371312382E+00  2.954848328E+02
9.386053174E+00  2.961127319E+02
9.400793967E+00  2.970080261E+02
9.415534759E+00  2.977821655E+02
9.430275551E+00  2.984678040E+02
9.445016343E+00  2.987168884E+02
9.459757135E+00  2.989974365E+02
9.474497927E+00  2.989361572E+02
9.489238719E+00  2.994151001E+02
9.503979511E+00  3.007202148E+02
9.518720303E+00  3.017506714E+02
9.533461096E+00  3.024292908E+02
9.548201888E+00  3.033477173E+02
9.562942680E+00  3.043992310E+02
9.577683472E+00  3.046015930E+02
9.592424264E+00  3.042669067E+02
9.607165056E+00  3.044157104E+02
9.621905848E+00  3.044443054E+02
9.636646640E+00  3.048135071E+02
9.651387432E+00  3.046232910E+02
9.666128225E+00  3.045016785E+02
9.680869017E+00  3.035100708E+02
9.695609809E+00  3.038487854E+02
9.710350601E+00  3.043741760E+02
9.725091393E+00  3.042455139E+02
9.739832185E+00  3.040027466E+02
9.754572977E+00  3.040380554E+02
9.769313769E+00  3.044164734E+02
9.784054561E+00  3.047628174E+02
9.798795354E+00  3.048225098E+02
9.813536146E+00  3.045857544E+02
9.828276938E+00  3.056421204E+02
9.843017730E+00  3.068935242E+02
9.857758522E+00  3.085313721E+02
9.872499314E+00  3.098049316E+02
9.887240106E+00  3.109178162E+02
9.901980898E+00  3.093487854E+02
9.916721690E+00  3.083298340E+02
9.931462483E+00  3.094102478E+02
9.946203275E+00  3.148575745E+02
9.960944067E+00  3.213669739E+02
9.975684859E+00  3.295405884E+02
9.990425651E+00  3.403184509E+02
1.000516644E+01  3.553198853E+02
1.001990724E+01  3.721050110E+02
1.003464803E+01  3.909163818E+02
1.004938882E+01  4.070807495E+02
1.006412961E+01  4.195501404E+02
1.007887040E+01  4.227180481E+02
1.009361120E+01  4.181965637E+02
1.010835199E+01  4.062019653E+02
1.012309278E+01  3.927978516E+02
1.013783357E+01  3.788823547E+02
1.015257436E+01  3.697690430E+02
1.016731516E+01  3.652989502E+02
1.018205595E+01  3.647197571E+02
1.019679674E+01  3.655762024E+02
1.021153753E+01  3.689355469E+02
1.022627832E+01  3.703399048E+02
1.024101912E+01  3.698494263E+02
1.025575991E+01  3.658429871E+02
1.027050070E+01  3.608286133E+02
1.028524149E+01  3.545959778E+02
1.029998229E+01  3.476101685E+02
1.031472308E+01  3.402346191E+02
1.032946387E+01  3.325063782E+02
1.034420466E+01  3.251325378E+02
1.035894545E+01  3.182294617E+02
1.037368625E+01  3.142662964E+02
1.038842704E+01  3.108812561E+02
1.040316783E+01  3.130341492E+02
1.041790862E+01  3.174010620E+02
1.043264941E+01  3.198282471E+02
1.044739021E+01  3.199064941E+02
1.046213100E+01  3.153350525E+02
1.047687179E+01  3.115719910E+02
1.049161258E+01  3.079536743E+02
1.050635337E+01  3.044386597E+02
1.052109417E+01  3.014714661E+02
1.053583496E+01  2.993799133E+02
1.055057575E+01  2.979233398E+02
1.056531654E+01  2.970802307E+02
1.058005734E+01  2.952003784E+02
1.059479813E+01  2.930203552E+02
1.060953892E+01  2.918517456E+02
1.062427971E+01  2.905786133E+02
1.063902050E+01  2.897230835E+02
1.065376130E+01  2.876446228E+02
1.066850209E+01  2.862045288E+02
1.068324288E+01  2.859137573E+02
1.069798367E+01  2.861359863E+02
1.071272446E+01  2.866958313E+02
1.072746526E+01  2.860257874E+02
1.074220605E+01  2.855474854E+02
1.075694684E+01  2.847436218E+02
1.077168763E+01  2.840157776E+02
1.078642843E+01  2.836032104E+02
1.080116922E+01  2.830454102E+02
1.081591001E+01  2.824909973E+02
1.083065080E+01  2.820521240E+02
1.084539159E+01  2.816039734E+02
1.086013239E+01  2.811900024E+02
1.087487318E+01  2.804955444E+02
1.088961397E+01  2.808818054E+02
1.090435476E+01  2.820693970E+02
1.091909555E+01  2.823565979E+02
1.093383635E+01  2.811416321E+02
1.094857714E+01  2.806465759E+02
1.096331793E+01  2.804001160E+02
1.097805872E+01  2.805355530E+02
1.099279951E+01  2.810202942E+02
1.100754031E+01  2.811499939E+02
1.102228110E+01  2.810371399E+02
1.103702189E+01  2.812343445E+02
1.105176268E+01  2.815254822E+02
1.106650348E+01  2.819821472E+02
1.108124427E+01  2.821437378E+02
1.109598506E+01  2.814174194E+02
1.111072585E+01  2.818421326E+02
1.112546664E+01  2.823807983E+02
1.114020744E+01  2.831490784E+02
1.115494823E+01  2.826922302E+02
1.116968902E+01  2.831689758E+02
1.118442981E+01  2.841578369E+02
1.119917060E+01  2.852046814E+02
1.121391140E+01  2.853175049E+02
1.122865219E+01  2.855739136E+02
1.124339298E+01  2.855859070E+02
1.125813377E+01  2.859490662E+02
1.127287456E+01  2.857915039E+02
1.128761536E+01  2.863385315E+02
1.130235615E+01  2.881005859E+02
1.131709694E+01  2.887788696E+02
1.133183773E+01  2.892630310E+02
1.134657853E+01  2.889418335E+02
1.136131932E+01  2.898717041E+02
1.137606011E+01  2.908190613E+02
1.139080090E+01  2.909758301E+02
1.140554169E+01  2.897727966E+02
1.142028249E+01  2.893472900E+02
1.143502328E+01  2.894201965E+02
1.144976407E+01  2.903654175E+02
1.146450486E+01  2.902993164E+02
1.147924565E+01  2.892770081E+02
1.149398645E+01  2.889029846E+02
1.150872724E+01  2.893202820E+02
1.152346803E+01  2.905599670E+02
1.153820882E+01  2.921388245E+02
1.155294961E+01  2.939372559E+02
1.156769041E+01  2.958878479E+02
1.158243120E+01  2.992023315E+02
1.159717199E+01  3.028650208E+02
1.161191278E+01  3.086998291E+02
1.162665358E+01  3.156571350E+02
1.164139437E+01  3.233908386E+02
1.165613516E+01  3.332993164E+02
1.167087595E+01  3.436918030E+02
1.168561674E+01  3.521681824E+02
1.170035754E+01  3.597579346E+02
1.171509833E+01  3.657472839E+02
1.172983912E+01  3.686324768E+02
1.174457991E+01  3.699384460E+02
1.175932070E+01  3.654646912E+02
1.177406150E+01  3.562241211E+02
1.178880229E+01  3.435374451E+02
1.180354308E+01  3.297287292E+02
1.181828387E+01  3.172927551E+02
1.183302467E+01  3.081625366E+02
1.184776546E+01  2.995730286E+02
1.186250625E+01  2.943232727E+02
1.187724704E+01  2.908026123E+02
1.189198783E+01  2.887984619E+02
1.190672863E+01  2.872624512E+02
1.192146942E+01  2.862013855E+02
1.193621021E+01  2.852921448E+02
1.195095100E+01  2.850107727E+02
1.196569179E+01  2.847940369E+02
1.198043259E+01  2.842389832E+02
1.199517338E+01  2.839276428E+02
1.200991417E+01  2.836868591E+02
1.202465496E+01  2.842101440E+02
1.203939575E+01  2.847207336E+02
1.205413655E+01  2.849983521E+02
1.206887734E+01  2.847049255E+02
1.208361813E+01  2.845876465E+02
1.209835892E+01  2.839886475E+02
1.211309972E+01  2.835990906E+02
1.212784051E+01  2.832933960E+02
1.214258130E+01  2.841983643E+02
1.215732209E+01  2.848272095E+02
1.217206288E+01  2.849715881E+02
1.218680368E+01  2.854628296E+02
1.220154447E+01  2.859924011E+02
1.221628526E+01  2.858865967E+02
1.223102605E+01  2.856353455E+02
1.224576684E+01  2.853252869E+02
1.226050764E+01  2.847929382E+02
1.227524843E+01  2.845262756E+02
1.228998922E+01  2.851208801E+02
1.230473001E+01  2.855850830E+02
1.231947080E+01  2.858906860E+02
1.233421160E+01  2.859050903E+02
1.234895239E+01  2.860092773E+02
1.236369318E+01  2.868574219E+02
1.237843397E+01  2.880005188E+02
1.239317477E+01  2.888551331E+02
1.240791556E+01  2.896285400E+02
1.242265635E+01  2.899086609E+02
1.243739714E+01  2.907021179E+02
1.245213793E+01  2.905905457E+02
1.246687873E+01  2.915207825E+02
1.248161952E+01  2.916888733E+02
1.249636031E+01  2.925360413E+02
1.251110110E+01  2.927072754E+02
1.252584189E+01  2.936904297E+02
1.254058269E+01  2.946760254E+02
1.255532348E+01  2.950585938E+02
1.257006427E+01  2.953558044E+02
1.258480506E+01  2.956642456E+02
1.259954585E+01  2.961262207E+02
1.261428665E+01  2.968581543E+02
1.262902744E+01  2.969642334E+02
1.264376823E+01  2.973999939E+02
1.265850902E+01  2.983855896E+02
1.267324982E+01  2.987905579E+02
1.268799061E+01  2.988934021E+02
1.270273140E+01  2.987659912E+02
1.271747219E+01  2.991666565E+02
1.273221298E+01  3.005071106E+02
1.274695378E+01  3.019345398E+02
1.276169457E+01  3.026469116E+02
1.277643536E+01  3.027222900E+02
1.279117615E+01  3.038501892E+02
1.280591694E+01  3.054480286E+02
1.282065774E+01  3.066204529E+02
1.283539853E+01  3.073079224E+02
1.285013932E+01  3.066959839E+02
1.286488011E+01  3.071162415E+02
1.287962091E+01  3.065424194E+02
1.289436170E+01  3.043936157E+02
1.290910249E+01  3.039751282E+02
1.292384328E+01  3.035787659E+02
1.293858407E+01  3.029715271E+02
1.295332487E+01  3.020187378E+02
1.296806566E+01  3.016313782E+02
1.298280645E+01  3.018874512E+02
1.299754724E+01  3.020644531E+02
1.301228803E+01  3.023064575E+02
1.302702883E+01  3.033607788E+02
1.304176962E+01  3.043043213E+02
1.305651041E+01  3.047358398E+02
1.307125120E+01  3.050688782E+02
1.308599199E+01  3.057830811E+02
1.310073279E+01  3.076707764E+02
1.311547358E+01  3.102205200E+02
1.313021437E+01  3.133579102E+02
1.314495516E+01  3.170516968E+02
1.315969596E+01  3.210077209E+02
1.317443675E+01  3.257295532E+02
1.318917754E+01  3.308280945E+02
1.320391833E+01  3.380470581E+02
1.321865912E+01  3.481928101E+02
1.323339992E+01  3.610469666E+02
1.324814071E+01  3.752938232E+02
1.326288150E+01  3.882091980E+02
1.327762229E+01  3.977965698E+02
1.329236308E+01  4.032405396E+02
1.330710388E+01  4.058492432E+02
1.332184467E+01  4.045298157E+02
1.333658546E+01  3.975600281E+02
1.335132625E+01  3.870336304E+02
1.336606704E+01  3.758326416E+02
1.338080784E+01  3.621272278E+02
1.339554863E+01  3.513472595E+02
1.341028942E+01  3.411986694E+02
1.342503021E+01  3.339262695E+02
1.343977101E+01  3.275466614E+02
1.345451180E+01  3.221415710E+02
1.346925259E+01  3.184587097E+02
1.348399338E+01  3.168129883E+02
1.349873417E+01  3.165453186E+02
1.351347497E+01  3.160673828E+02
1.352821576E+01  3.150472717E+02
1.354295655E+01  3.142324524E+02
1.355769734E+01  3.136755371E+02
1.357243813E+01  3.148789673E+02
1.358717893E+01  3.154929504E+02
1.360191972E+01  3.165804443E+02
1.361666051E+01  3.170554810E+02
1.363140130E+01  3.176763306E+02
1.364614209E+01  3.174821777E+02
1.366088289E+01  3.179414673E+02
1.367562368E+01  3.186659241E+02
1.369036447E+01  3.197051086E+02
1.370510526E+01  3.220478516E+02
1.371984606E+01  3.243724060E+02
1.373458685E+01  3.272064819E+02
1.374932764E+01  3.308880310E+02
1.376406843E+01  3.351944580E+02
1.377880922E+01  3.418045349E+02
1.379355002E+01  3.434630432E+02
1.380829081E+01  3.438494263E+02
1.382303160E+01  3.439587708E+02
1.383777239E+01  3.429440613E+02
1.385251318E+01  3.402277832E+02
1.386725398E+01  3.379229126E+02
1.388199477E+01  3.356031494E+02
1.389673556E+01  3.342992554E+02
1.391147635E+01  3.319487305E+02
1.392621715E+01  3.300570068E+02
1.394095794E+01  3.289884644E+02
1.395569873E+01  3.274909668E+02
1.397043952E+01  3.259438477E+02
1.398518031E+01  3.240925903E+02
1.399992111E+01  3.221561279E+02
1.401466190E+01  3.204974670E+02
1.402940269E+01  3.201045532E+02
1.404414348E+01  3.204880676E+02
1.405888427E+01  3.206918335E+02
1.407362507E+01  3.205751648E+02
1.408836586E+01  3.200877380E+02
1.410310665E+01  3.199576416E+02
1.411784744E+01  3.200563660E+02
1.413258823E+01  3.203732605E+02
1.414732903E+01  3.205552979E+02
1.416206982E+01  3.213127441E+02
1.417681061E+01  3.216259766E+02
1.419155140E+01  3.223691101E+02
1.420629220E+01  3.237490540E+02
1.422103299E+01  3.249703369E+02
1.423577378E+01  3.259314575E+02
1.425051457E+01  3.264657898E+02
1.426525536E+01  3.271824036E+02
1.427999616E+01  3.274210205E+02
1.429473695E+01  3.277430115E+02
1.430947774E+01  3.293732300E+02
1.432421853E+01  3.322737732E+02
1.433895932E+01  3.366956482E+02
1.435370012E+01  3.405554504E+02
1.436844091E+01  3.473326416E+02
1.438318170E+01  3.550220032E+02
1.439792249E+01  3.641404419E+02
1.441266328E+01  3.758988342E+02
1.442740408E+01  3.874073181E+02
1.444214487E+01  3.978735962E+02
1.445688566E+01  4.051943970E+02
1.447162645E+01  4.096603394E+02
1.448636725E+01  4.114434814E+02
1.450110804E+01  4.091368713E+02
1.451584883E+01  4.034842834E+02
1.453058962E+01  3.957936096E+02
1.454533041E+01  3.863842773E+02
1.456007121E+01  3.771889343E+02
1.457481200E+01  3.706528320E+02
1.458955279E+01  3.654616089E+02
1.460429358E+01  3.624477844E+02
1.461903437E+01  3.592354736E+02
1.463377517E+01  3.571640930E+02
1.464851596E+01  3.556346436E+02
1.466325675E+01  3.543908691E+02
1.467799754E+01  3.529851074E+02
1.469273833E+01  3.516235962E+02
1.470747913E+01  3.502145386E+02
1.472221992E+01  3.477698669E+02
1.473696071E+01  3.458481445E+02
1.475170150E+01  3.443716431E+02
1.476644230E+01  3.424204712E+02
1.478118309E+01  3.394924927E+02
1.479592388E+01  3.364070740E+02
1.481066467E+01  3.342090454E+02
1.482540546E+01  3.321568604E+02
1.484014626E+01  3.303417969E+02
1.485488705E+01  3.290250549E+02
1.486962784E+01  3.283025208E+02
1.488436863E+01  3.289913025E+02
1.489910942E+01  3.294990234E+02
1.491385022E+01  3.302598877E+02
1.492859101E+01  3.320369568E+02
1.494333180E+01  3.341092224E+02
1.495807259E+01  3.367395935E+02
1.497281339E+01  3.378271179E+02
1.498755418E+01  3.393210144E+02
1.500229497E+01  3.413894653E+02
1.501703576E+01  3.425607300E+02
1.503177655E+01  3.439754944E+02
1.504651735E+01  3.439005432E+02
1.506125814E+01  3.427721558E+02
1.507599893E+01  3.401456909E+02
1.509073972E+01  3.373845520E+02
1.510548051E+01  3.344067383E+02
1.512022131E+01  3.324444275E+02
1.513496210E+01  3.298517456E+02
1.514970289E+01  3.275249329E+02
1.516444368E+01  3.255756531E+02
1.517918447E+01  3.243527222E+02
1.519392527E+01  3.236401062E+02
1.520866606E+01  3.235925903E+02
1.522340685E+01  3.230739441E+02
1.523814764E+01  3.228247986E+02
1.525288844E+01  3.223481140E+02
1.526762923E+01  3.221777649E+02
1.528237002E+01  3.219615784E+02
1.529711081E+01  3.223354492E+02
1.531185160E+01  3.230651245E+02
1.532659240E+01  3.227328796E+02
1.534133319E+01  3.230617065E+02
1.535607398E+01  3.229661255E+02
1.537081477E+01  3.226813660E+02
1.538555556E+01  3.220497742E+02
1.540029636E+01  3.215105591E+02
1.541503715E+01  3.218033142E+02
1.542977794E+01  3.219233398E+02
1.544451873E+01  3.225398865E+02
1.545925952E+01  3.221705322E+02
1.547400032E+01  3.222171326E+02
1.548874111E+01  3.227701111E+02
1.550348190E+01  3.229439087E+02
1.551822269E+01  3.225581360E+02
1.553296349E+01  3.228465576E+02
1.554770428E+01  3.231094971E+02
1.556244507E+01  3.231878052E+02
1.557718586E+01  3.233849487E+02
1.559192665E+01  3.241243286E+02
1.560666745E+01  3.248653259E+02
1.562140824E+01  3.256116943E+02
1.563614903E+01  3.261422729E+02
1.565088982E+01  3.264826050E+02
1.566563061E+01  3.260865784E+02
1.568037141E+01  3.245738831E+02
1.569511220E+01  3.238455505E+02
1.570985299E+01  3.230513306E+02
1.572459378E+01  3.228503113E+02
1.573933457E+01  3.213778687E+02
1.575407537E+01  3.205960083E+02
1.576881616E+01  3.203702393E+02
1.578355695E+01  3.210060120E+02
1.579829774E+01  3.215153198E+02
1.581303854E+01  3.209870300E+02
1.582777933E+01  3.200971069E+02
1.584252012E+01  3.197549744E+02
1.585726091E+01  3.196214905E+02
1.587200170E+01  3.191122742E+02
1.588674250E+01  3.192759399E+02
1.590148329E+01  3.196624146E+02
1.591622408E+01  3.193650513E+02
1.593096487E+01  3.185968323E+02
1.594570566E+01  3.179598389E+02
1.596044646E+01  3.183047180E+02
1.597518725E+01  3.187023315E+02
1.598992804E+01  3.194035339E+02
1.600466883E+01  3.195443420E+02
1.601940963E+01  3.195677795E+02
1.603415042E+01  3.187351379E+02
1.604889121E+01  3.183396301E+02
1.606363200E+01  3.190401917E+02
1.607837279E+01  3.197229614E+02
1.609311359E+01  3.199899292E+02
1.610785438E+01  3.198954163E+02
1.612259517E+01  3.202456360E+02
1.613733596E+01  3.197100220E+02
1.615207675E+01  3.187957458E+02
1.616681755E+01  3.188919983E+02
1.618155834E+01  3.191402893E+02
1.619629913E+01  3.199095459E+02
1.621103992E+01  3.203912659E+02
1.622578071E+01  3.210577087E+02
1.624052151E+01  3.214312439E+02
1.625526230E+01  3.223785095E+02
1.627000309E+01  3.233771362E+02
1.628474388E+01  3.244944763E+02
1.629948468E+01  3.251781921E+02
1.631422547E+01  3.254906616E+02
1.632896626E+01  3.255987854E+02
1.634370705E+01  3.265891113E+02
1.635844784E+01  3.265804443E+02
1.637318864E+01  3.265989990E+02
1.638792943E+01  3.265443726E+02
1.640267022E+01  3.266230164E+02
1.641741101E+01  3.269259033E+02
1.643215180E+01  3.269347229E+02
1.644689260E+01  3.272969971E+02
1.646163339E+01  3.268083191E+02
1.647637418E+01  3.268040466E+02
1.649111497E+01  3.267511902E+02
1.650585576E+01  3.261011047E+02
1.652059656E+01  3.256441650E+02
1.653533735E+01  3.260969849E+02
1.655007814E+01  3.266432800E+02
1.656481893E+01  3.264647827E+02
1.657955973E+01  3.261087952E+02
1.659430052E+01  3.267716980E+02
1.660904131E+01  3.273802185E+02
1.662378210E+01  3.278602600E+02
1.663852289E+01  3.281871948E+02
1.665326369E+01  3.281385193E+02
1.666800448E+01  3.292453308E+02
1.668274527E+01  3.299455566E+02
1.669748606E+01  3.314981995E+02
1.671222685E+01  3.328481750E+02
1.672696765E+01  3.347095032E+02
1.674170844E+01  3.362578430E+02
1.675644923E+01  3.380747070E+02
1.677119002E+01  3.404862366E+02
1.678593081E+01  3.428528442E+02
1.680067161E+01  3.452840881E+02
1.681541240E+01  3.461341858E+02
1.683015319E+01  3.463533936E+02
1.684489398E+01  3.453931885E+02
1.685963478E+01  3.436423645E+02
1.687437557E+01  3.420208130E+02
1.688911636E+01  3.388827209E+02
1.690385715E+01  3.350285034E+02
1.691859794E+01  3.315064697E+02
1.693333874E+01  3.293281860E+02
1.694807953E+01  3.276466675E+02
1.696282032E+01  3.270810852E+02
1.697756111E+01  3.263770752E+02
1.699230190E+01  3.261778564E+02
1.700704270E+01  3.258488159E+02
1.702178349E+01  3.257770996E+02
1.703652428E+01  3.262416992E+02
1.705126507E+01  3.256596375E+02
1.706600587E+01  3.258664551E+02
1.708074666E+01  3.252881165E+02
1.709548745E+01  3.252594299E+02
1.711022824E+01  3.253033142E+02
1.712496903E+01  3.259387207E+02
1.713970983E+01  3.252660522E+02
1.715445062E+01  3.261060791E+02
1.716919141E+01  3.270921021E+02
1.718393220E+01  3.274818420E+02
1.719867299E+01  3.277718506E+02
1.721341379E+01  3.283713684E+02
1.722815458E+01  3.292174072E+02
1.724289537E+01  3.293719788E+02
1.725763616E+01  3.296503906E+02
1.727237695E+01  3.293527832E+02
1.728711775E+01  3.295409546E+02
1.730185854E+01  3.287765503E+02
1.731659933E+01  3.286148987E+02
1.733134012E+01  3.285830994E+02
1.734608092E+01  3.287169189E+02
1.736082171E+01  3.285746765E+02
1.737556250E+01  3.281665955E+02
1.739030329E+01  3.285206604E+02
1.740504408E+01  3.287102051E+02
1.741978488E+01  3.286993103E+02
1.743452567E+01  3.285631714E+02
1.744926646E+01  3.285873108E+02
1.746400725E+01  3.289343262E+02
1.747874804E+01  3.305101318E+02
1.749348884E+01  3.308670654E+02
1.750822963E+01  3.306967773E+02
1.752297042E+01  3.309979553E+02
1.753771121E+01  3.319732056E+02
1.755245200E+01  3.335281372E+02
1.756719280E+01  3.337790833E+02
1.758193359E+01  3.339103088E+02
1.759667438E+01  3.338941040E+02
1.761141517E+01  3.353852234E+02
1.762615597E+01  3.371436157E+02
1.764089676E+01  3.398400879E+02
1.765563755E+01  3.425371094E+02
1.767037834E+01  3.453709717E+02
1.768511913E+01  3.466978455E+02
1.769985993E+01  3.486702576E+02
1.771460072E+01  3.494755249E+02
1.772934151E+01  3.501823120E+02
1.774408230E+01  3.510888672E+02
1.775882309E+01  3.515465088E+02
1.777356389E+01  3.511628723E+02
1.778830468E+01  3.501035767E+02
1.780304547E+01  3.484527283E+02
1.781778626E+01  3.480261536E+02
1.783252705E+01  3.472973022E+02
1.784726785E+01  3.466349182E+02
1.786200864E+01  3.448118896E+02
1.787674943E+01  3.431956787E+02
1.789149022E+01  3.414545288E+02
1.790623102E+01  3.402936401E+02
1.792097181E+01  3.392873230E+02
1.793571260E+01  3.376424255E+02
1.795045339E+01  3.365906067E+02
1.796519418E+01  3.353154602E+02
1.797993498E+01  3.345138245E+02
1.799467577E+01  3.334932861E+02
1.800941656E+01  3.325785217E+02
1.802415735E+01  3.319981384E+02
1.803889814E+01  3.315671997E+02
1.805363894E+01  3.317956848E+02
1.806837973E+01  3.314347229E+02
1.808312052E+01  3.311916809E+02
1.809786131E+01  3.313862000E+02
1.811260211E+01  3.310644226E+02
1.812734290E+01  3.310786133E+02
1.814208369E+01  3.310299072E+02
1.815682448E+01  3.313697510E+02
1.817156527E+01  3.314334717E+02
1.818630607E+01  3.304219971E+02
1.820104686E+01  3.295124817E+02
1.821578765E+01  3.294466858E+02
1.823052844E+01  3.304438782E+02
1.824526923E+01  3.316261902E+02
1.826001003E+01  3.320272217E+02
1.827475082E+01  3.318650513E+02
1.828949161E+01  3.317469788E+02
1.830423240E+01  3.321865234E+02
1.831897319E+01  3.328965149E+02
1.833371399E+01  3.333754272E+02
1.834845478E+01  3.340153503E+02
1.836319557E+01  3.346975098E+02
1.837793636E+01  3.354528198E+02
1.839267716E+01  3.351338196E+02
1.840741795E+01  3.344244080E+02
1.842215874E+01  3.338649597E+02
1.843689953E+01  3.345335388E+02
1.845164032E+01  3.353651428E+02
1.846638112E+01  3.358126526E+02
1.848112191E+01  3.351611023E+02
1.849586270E+01  3.337710571E+02
1.851060349E+01  3.316459961E+02
1.852534428E+01  3.307372131E+02
1.854008508E+01  3.295516357E+02
1.855482587E+01  3.284802246E+02
1.856956666E+01  3.276305237E+02
1.858430745E+01  3.276998596E+02
1.859904824E+01  3.280874939E+02
1.861378904E+01  3.282089844E+02
1.862852983E+01  3.273915405E+02
1.864327062E+01  3.259761963E+02
1.865801141E+01  3.258021851E+02
1.867275221E+01  3.253723450E+02
1.868749300E+01  3.247216797E+02
1.870223379E+01  3.247304077E+02
1.871697458E+01  3.254446106E+02
1.873171537E+01  3.252754211E+02
1.874645617E+01  3.248978271E+02
1.876119696E+01  3.241100159E+02
1.877593775E+01  3.238106079E+02
1.879067854E+01  3.235943298E+02
1.880541933E+01  3.244435120E+02
1.882016013E+01  3.245085754E+02
1.883490092E+01  3.239044189E+02
1.884964171E+01  3.235126648E+02
1.886438250E+01  3.231052856E+02
1.887912329E+01  3.235633850E+02
1.889386409E+01  3.239401245E+02
1.890860488E+01  3.241962891E+02
1.892334567E+01  3.242918396E+02
1.893808646E+01  3.242711792E+02
1.895282726E+01  3.246136169E+02
1.896756805E+01  3.240059509E+02
1.898230884E+01  3.238409729E+02
1.899704963E+01  3.233856201E+02
1.901179042E+01  3.231920471E+02
1.902653122E+01  3.229250488E+02
1.904127201E+01  3.236991577E+02
1.905601280E+01  3.241269531E+02
1.907075359E+01  3.239183960E+02
1.908549438E+01  3.236966248E+02
1.910023518E+01  3.233830566E+02
1.911497597E+01  3.234210205E+02
1.912971676E+01  3.238052673E+02
1.914445755E+01  3.239313354E+02
1.915919834E+01  3.241910095E+02
1.917393914E+01  3.235008240E+02
1.918867993E+01  3.227897034E+02
1.920342072E+01  3.230460815E+02
1.921816151E+01  3.235822144E+02
1.923290231E+01  3.234642944E+02
1.924764310E+01  3.238045044E+02
1.926238389E+01  3.230711670E+02
1.927712468E+01  3.232688599E+02
1.929186547E+01  3.236150818E+02
1.930660627E+01  3.235001831E+02
1.932134706E+01  3.228936462E+02
1.933608785E+01  3.231744690E+02
1.935082864E+01  3.236539001E+02
1.936556943E+01  3.235763855E+02
1.938031023E+01  3.232283936E+02
1.939505102E+01  3.237729797E+02
1.940979181E+01  3.242157898E+02
1.942453260E+01  3.246103821E+02
1.943927340E+01  3.237783203E+02
1.945401419E+01  3.230594788E+02
1.946875498E+01  3.224968872E+02
1.948349577E+01  3.233466492E+02
1.949823656E+01  3.237377625E+02
1.951297736E+01  3.233078308E+02
1.952771815E+01  3.230453796E+02
1.954245894E+01  3.227657776E+02
1.955719973E+01  3.234186096E+02
1.957194052E+01  3.236578064E+02
1.958668132E+01  3.231578369E+02
1.960142211E+01  3.223156433E+02
1.961616290E+01  3.222667236E+02
1.963090369E+01  3.229219971E+02
1.964564448E+01  3.236747437E+02
1.966038528E+01  3.241082458E+02
1.967512607E+01  3.242278748E+02
1.968986686E+01  3.239447021E+02
1.970460765E+01  3.240967712E+02
1.971934845E+01  3.248168335E+02
1.973408924E+01  3.260973206E+02
1.974883003E+01  3.267513428E+02
1.976357082E+01  3.265019226E+02
1.977831161E+01  3.251321716E+02
1.979305241E+01  3.246519775E+02
1.980779320E+01  3.245433350E+02
1.982253399E+01  3.253364258E+02
1.983727478E+01  3.260797119E+02
1.985201557E+01  3.270671387E+02
1.986675637E+01  3.283083191E+02
1.988149716E+01  3.295267029E+02
1.989623795E+01  3.308912659E+02
1.991097874E+01  3.306232300E+02
1.992571953E+01  3.305467224E+02
1.994046033E+01  3.303639832E+02
1.995520112E+01  3.307153625E+02
1.996994191E+01  3.311529541E+02
1.998468270E+01  3.304326782E+02
1.999942350E+01  3.295047302E+02
2.001416429E+01  3.295375671E+02
2.002890508E+01  3.300762634E+02
2.004364587E+01  3.304637451E+02
2.005838666E+01  3.296491699E+02
2.007312746E+01  3.293839111E+02
2.008786825E+01  3.306789551E+02
2.010260904E+01  3.323598633E+02
2.011734983E+01  3.342614136E+02
2.013209062E+01  3.345414734E+02
2.014683142E+01  3.363260498E+02
2.016157221E+01  3.392749939E+02
2.017631300E+01  3.420295715E+02
2.019105379E+01  3.435969543E+02
2.020579458E+01  3.465808411E+02
2.022053538E+01  3.495467224E+02
2.023527617E+01  3.531877136E+02
2.025001696E+01  3.568843689E+02
2.026475775E+01  3.608031616E+02
2.027949855E+01  3.655669250E+02
2.029423934E+01  3.703284302E+02
2.030898013E+01  3.747479858E+02
2.032372092E+01  3.774410706E+02
2.033846171E+01  3.785422058E+02
2.035320251E+01  3.781803284E+02
2.036794330E+01  3.758642883E+02
2.038268409E+01  3.723656006E+02
2.039742488E+01  3.667503357E+02
2.041216567E+01  3.607137146E+02
2.042690647E+01  3.554869690E+02
2.044164726E+01  3.505839539E+02
2.045638805E+01  3.463142395E+02
2.047112884E+01  3.431679077E+02
2.048586964E+01  3.403984985E+02
2.050061043E+01  3.373492432E+02
2.051535122E+01  3.349545898E+02
2.053009201E+01  3.334631958E+02
2.054483280E+01  3.320803833E+02
2.055957360E+01  3.306906433E+02
2.057431439E+01  3.295745850E+02
2.058905518E+01  3.280898132E+02
2.060379597E+01  3.275015259E+02
2.061853676E+01  3.276237183E+02
2.063327756E+01  3.267338257E+02
2.064801835E+01  3.264398804E+02
2.066275914E+01  3.258106995E+02
2.067749993E+01  3.264692993E+02
2.069224072E+01  3.269176941E+02
2.070698152E+01  3.267253418E+02
2.072172231E+01  3.255149536E+02
2.073646310E+01  3.248251038E+02
2.075120389E+01  3.244154663E+02
2.076594469E+01  3.239251404E+02
2.078068548E+01  3.235956421E+02
2.079542627E+01  3.235395203E+02
2.081016706E+01  3.232843628E+02
2.082490785E+01  3.233721924E+02
2.083964865E+01  3.240202637E+02
2.085438944E+01  3.232760315E+02
2.086913023E+01  3.234614258E+02
2.088387102E+01  3.239908752E+02
2.089861181E+01  3.241927185E+02
2.091335261E+01  3.236530457E+02
2.092809340E+01  3.228761292E+02
2.094283419E+01  3.230057068E+02
2.095757498E+01  3.242706604E+02
2.097231577E+01  3.244839172E+02
2.098705657E+01  3.246940308E+02
2.100179736E+01  3.244638367E+02
2.101653815E+01  3.247248840E+02
2.103127894E+01  3.248647766E+02
2.104601974E+01  3.244238892E+02
2.106076053E+01  3.240884399E+02
2.107550132E+01  3.228032227E+02
2.109024211E+01  3.222284851E+02
2.110498290E+01  3.228385925E+02
2.111972370E+01  3.238854065E+02
2.113446449E+01  3.248257751E+02
2.114920528E+01  3.255537720E+02
2.116394607E+01  3.269334106E+02
2.117868686E+01  3.272199402E+02
2.119342766E+01  3.270238647E+02
2.120816845E+01  3.262623596E+02
2.122290924E+01  3.265634766E+02
2.123765003E+01  3.268388672E+02
2.125239082E+01  3.274450989E+02
2.126713162E+01  3.290459290E+02
2.128187241E+01  3.295489197E+02
2.129661320E+01  3.287393188E+02
2.131135399E+01  3.288081055E+02
2.132609479E+01  3.299761963E+02
2.134083558E+01  3.300750122E+02
2.135557637E+01  3.300596924E+02
2.137031716E+01  3.299408264E+02
2.138505795E+01  3.295027161E+02
2.139979875E+01  3.288702698E+02
2.141453954E+01  3.287730408E+02
2.142928033E+01  3.289320374E+02
2.144402112E+01  3.285965881E+02
2.145876191E+01  3.280786438E+02
2.147350271E+01  3.293346558E+02
2.148824350E+01  3.299454041E+02
2.150298429E+01  3.293555908E+02
2.151772508E+01  3.280146179E+02
2.153246588E+01  3.275064392E+02
2.154720667E+01  3.266368103E+02
2.156194746E+01  3.249485168E+02
2.157668825E+01  3.250529175E+02
2.159142904E+01  3.254869690E+02
2.160616984E+01  3.261600647E+02
2.162091063E+01  3.262857666E+02
2.163565142E+01  3.253842468E+02
2.165039221E+01  3.250574951E+02
2.166513300E+01  3.248942871E+02
2.167987380E+01  3.238851318E+02
2.169461459E+01  3.241708374E+02
2.170935538E+01  3.249326172E+02
2.172409617E+01  3.259481201E+02
2.173883696E+01  3.255873718E+02
2.175357776E+01  3.260278625E+02
2.176831855E+01  3.266872253E+02
2.178305934E+01  3.267132874E+02
2.179780013E+01  3.261927490E+02
2.181254093E+01  3.259166260E+02
2.182728172E+01  3.260001526E+02
2.184202251E+01  3.254353027E+02
2.185676330E+01  3.257225037E+02
2.187150409E+01  3.267250671E+02
2.188624489E+01  3.273515625E+02
2.190098568E+01  3.283604431E+02
2.191572647E+01  3.289327087E+02
2.193046726E+01  3.294709778E+02
2.194520805E+01  3.298607788E+02
2.195994885E+01  3.302194519E+02
2.197468964E+01  3.309108887E+02
2.198943043E+01  3.324142456E+02
2.200417122E+01  3.329271240E+02
2.201891201E+01  3.337949219E+02
2.203365281E+01  3.340982666E+02
2.204839360E+01  3.346826172E+02
2.206313439E+01  3.348650818E+02
2.207787518E+01  3.358692627E+02
2.209261598E+01  3.368818359E+02
2.210735677E+01  3.375386963E+02
2.212209756E+01  3.375841980E+02
2.213683835E+01  3.378992615E+02
2.215157914E+01  3.390013733E+02
2.216631994E+01  3.404497070E+02
2.218106073E+01  3.431640015E+02
2.219580152E+01  3.455837708E+02
2.221054231E+01  3.475486755E+02
2.222528310E+01  3.483213806E+02
2.224002390E+01  3.493381958E+02
2.225476469E+01  3.495035400E+02
2.226950548E+01  3.499614563E+02
2.228424627E+01  3.476401978E+02
2.229898706E+01  3.464046936E+02
2.231372786E+01  3.438238525E+02
2.232846865E+01  3.429144592E+02
2.234320944E+01  3.416280823E+02
2.235795023E+01  3.409725342E+02
2.237269103E+01  3.413168030E+02
2.238743182E+01  3.406071167E+02
2.240217261E+01  3.400966797E+02
2.241691340E+01  3.390969849E+02
2.243165419E+01  3.398523254E+02
2.244639499E+01  3.402314758E+02
2.246113578E+01  3.395562439E+02
2.247587657E+01  3.393585510E+02
2.249061736E+01  3.384619446E+02
2.250535815E+01  3.385537720E+02
2.252009895E+01  3.382704163E+02
2.253483974E+01  3.386844177E+02
2.254958053E+01  3.390229492E+02
2.256432132E+01  3.388248596E+02
2.257906212E+01  3.381230164E+02
2.259380291E+01  3.378437500E+02
2.260854370E+01  3.383292236E+02
2.262328449E+01  3.383218689E+02
2.263802528E+01  3.392139282E+02
2.265276608E+01  3.397996216E+02
2.266750687E+01  3.398648987E+02
2.268224766E+01  3.401285095E+02
2.269698845E+01  3.410455322E+02
2.271172924E+01  3.415762634E+02
2.272647004E+01  3.432784424E+02
2.274121083E+01  3.450669556E+02
2.275595162E+01  3.474976807E+02
2.277069241E+01  3.482592468E+02
2.278543320E+01  3.463787537E+02
2.280017400E+01  3.452901306E+02
2.281491479E+01  3.470122986E+02
2.282965558E+01  3.496987610E+02
2.284439637E+01  3.528520813E+02
2.285913717E+01  3.564133606E+02
2.287387796E+01  3.599731750E+02
2.288861875E+01  3.634914246E+02
2.290335954E+01  3.668916016E+02
2.291810033E+01  3.704625244E+02
2.293284113E+01  3.730764160E+02
2.294758192E+01  3.748540955E+02
2.296232271E+01  3.754626160E+02
2.297706350E+01  3.740298767E+02
2.299180429E+01  3.716707153E+02
2.300654509E+01  3.695189819E+02
2.302128588E+01  3.667391357E+02
2.303602667E+01  3.647890320E+02
2.305076746E+01  3.613718567E+02
2.306550825E+01  3.582956238E+02
2.308024905E+01  3.538076782E+02
2.309498984E+01  3.521447449E+02
2.310973063E+01  3.507482300E+02
2.312447142E+01  3.499527893E+02
2.313921222E+01  3.492707825E+02
2.315395301E+01  3.489495239E+02
2.316869380E+01  3.494838867E+02
2.318343459E+01  3.488041077E+02
2.319817538E+01  3.479113770E+02
2.321291618E+01  3.466903687E+02
2.322765697E+01  3.459865417E+02
2.324239776E+01  3.452652283E+02
2.325713855E+01  3.452430420E+02
2.327187934E+01  3.446010437E+02
2.328662014E+01  3.443278503E+02
2.330136093E+01  3.443786316E+02
2.331610172E+01  3.444271240E+02
2.333084251E+01  3.443243408E+02
2.334558330E+01  3.445732422E+02
2.336032410E+01  3.458403625E+02
2.337506489E+01  3.454919434E+02
2.338980568E+01  3.453774719E+02
2.340454647E+01  3.453481445E+02
2.341928727E+01  3.463952026E+02
2.343402806E+01  3.477332153E+02
2.344876885E+01  3.495775757E+02
2.346350964E+01  3.507424011E+02
2.347825043E+01  3.508661499E+02
2.349299123E+01  3.494696350E+02
2.350773202E+01  3.493106995E+02
2.352247281E+01  3.486910706E+02
2.353721360E+01  3.482592163E+02
2.355195439E+01  3.477564087E+02
2.356669519E+01  3.471104126E+02
2.358143598E+01  3.470310364E+02
2.359617677E+01  3.454884644E+02
2.361091756E+01  3.433036194E+02
2.362565836E+01  3.414796143E+02
2.364039915E+01  3.414978638E+02
2.365513994E+01  3.411524658E+02
2.366988073E+01  3.405685120E+02
2.368462152E+01  3.401607666E+02
2.369936232E+01  3.399670410E+02
2.371410311E+01  3.392976379E+02
2.372884390E+01  3.384052124E+02
2.374358469E+01  3.384325562E+02
2.375832548E+01  3.382192688E+02
2.377306628E+01  3.384248352E+02
2.378780707E+01  3.391423645E+02
2.380254786E+01  3.395968933E+02
2.381728865E+01  3.385507202E+02
2.383202944E+01  3.393835754E+02
2.384677024E+01  3.405665894E+02
2.386151103E+01  3.417247925E+02
2.387625182E+01  3.413900757E+02
2.389099261E+01  3.418025208E+02
2.390573341E+01  3.425902405E+02
2.392047420E+01  3.438420105E+02
2.393521499E+01  3.450251160E+02
2.394995578E+01  3.471621399E+02
2.396469657E+01  3.488203735E+02
2.397943737E+01  3.487804565E+02
2.399417816E+01  3.485620117E+02
2.400891895E+01  3.480697021E+02
2.402365974E+01  3.481856689E+02
2.403840053E+01  3.487216797E+02
2.405314133E+01  3.482459717E+02
2.406788212E+01  3.468529663E+02
2.408262291E+01  3.458975830E+02
2.409736370E+01  3.439406433E+02
2.411210449E+01  3.422044983E+02
2.412684529E+01  3.413080750E+02
2.414158608E+01  3.412881775E+02
2.415632687E+01  3.414928894E+02
2.417106766E+01  3.423903503E+02
2.418580846E+01  3.433592529E+02
2.420054925E+01  3.447783508E+02
2.421529004E+01  3.452129517E+02
2.423003083E+01  3.457640686E+02
2.424477162E+01  3.475208435E+02
2.425951242E+01  3.498561401E+02
2.427425321E+01  3.525322876E+02
2.428899400E+01  3.550643005E+02
2.430373479E+01  3.568333435E+02
2.431847558E+01  3.570531006E+02
2.433321638E+01  3.574800110E+02
2.434795717E+01  3.589104309E+02
2.436269796E+01  3.597737122E+02
2.437743875E+01  3.612234802E+02
2.439217954E+01  3.613183594E+02
2.440692034E+01  3.600592041E+02
2.442166113E+01  3.582275696E+02
2.443640192E+01  3.570720520E+02
2.445114271E+01  3.553437500E+02
2.446588351E+01  3.520767822E+02
2.448062430E+01  3.486615906E+02
2.449536509E+01  3.447828979E+02
2.451010588E+01  3.426541138E+02
2.452484667E+01  3.420034180E+02
2.453958747E+01  3.401801758E+02
2.455432826E+01  3.377997437E+02
2.456906905E+01  3.364084473E+02
2.458380984E+01  3.358652344E+02
2.459855063E+01  3.356185608E+02
2.461329143E+01  3.348804932E+02
2.462803222E+01  3.351705933E+02
2.464277301E+01  3.359653015E+02
2.465751380E+01  3.352073059E+02
2.467225460E+01  3.354443665E+02
2.468699539E+01  3.351802368E+02
2.470173618E+01  3.344660339E+02
2.471647697E+01  3.344958191E+02
2.473121776E+01  3.356945801E+02
2.474595856E+01  3.359835815E+02
2.476069935E+01  3.370588379E+02
2.477544014E+01  3.374486389E+02
2.479018093E+01  3.377252808E+02
2.480492172E+01  3.369829407E+02
2.481966252E+01  3.364033508E+02
2.483440331E+01  3.376325684E+02
2.484914410E+01  3.382695007E+02
2.486388489E+01  3.381612549E+02
2.487862568E+01  3.383487244E+02
2.489336648E+01  3.400660095E+02
2.490810727E+01  3.410079651E+02
2.492284806E+01  3.416964417E+02
2.493758885E+01  3.425625305E+02
2.495232965E+01  3.426539001E+02
2.496707044E+01  3.423296509E+02
2.498181123E+01  3.438515015E+02
2.499655202E+01  3.472357178E+02
2.501129281E+01  3.477724609E+02
2.502603361E+01  3.482297974E+02
2.504077440E+01  3.491026001E+02
2.505551519E+01  3.515111694E+02
2.507025598E+01  3.535782166E+02
2.508499677E+01  3.551070557E+02
2.509973757E+01  3.571519165E+02
2.511447836E+01  3.597436218E+02
2.512921915E+01  3.622264709E+02
2.514395994E+01  3.635056458E+02
2.515870073E+01  3.638560486E+02
2.517344153E+01  3.638763428E+02
2.518818232E+01  3.639236755E+02
2.520292311E+01  3.623742981E+02
2.521766390E+01  3.613476562E+02
2.523240470E+01  3.599179993E+02
2.524714549E+01  3.576315613E+02
2.526188628E+01  3.564183044E+02
2.527662707E+01  3.564728394E+02
2.529136786E+01  3.567008362E+02
2.530610866E+01  3.548591003E+02
2.532084945E+01  3.528097229E+02
2.533559024E+01  3.512200623E+02
2.535033103E+01  3.511324158E+02
2.536507182E+01  3.513825684E+02
2.537981262E+01  3.517689819E+02
2.539455341E+01  3.511564026E+02
2.540929420E+01  3.519795837E+02
2.542403499E+01  3.523181152E+02
2.543877578E+01  3.532328186E+02
2.545351658E+01  3.534741516E+02
2.546825737E+01  3.534638672E+02
2.548299816E+01  3.523289490E+02
2.549773895E+01  3.499858093E+02
2.551247975E+01  3.483257141E+02
2.552722054E+01  3.473378296E+02
2.554196133E+01  3.460569458E+02
2.555670212E+01  3.450715637E+02
2.557144291E+01  3.443634338E+02
2.558618371E+01  3.447535706E+02
2.560092450E+01  3.448975525E+02
2.561566529E+01  3.435669861E+02
2.563040608E+01  3.426560059E+02
2.564514687E+01  3.422006836E+02
2.565988767E+01  3.407361755E+02
2.567462846E+01  3.393391418E+02
2.568936925E+01  3.393458557E+02
2.570411004E+01  3.397692261E+02
2.571885084E+01  3.403181458E+02
2.573359163E+01  3.410414124E+02
2.574833242E+01  3.408755798E+02
2.576307321E+01  3.395501404E+02
2.577781400E+01  3.390853577E+02
2.579255480E+01  3.398368225E+02
2.580729559E+01  3.387896118E+02
2.582203638E+01  3.378512878E+02
2.583677717E+01  3.367811584E+02
2.585151796E+01  3.367841187E+02
2.586625876E+01  3.359724121E+02
2.588099955E+01  3.360281677E+02
2.589574034E+01  3.352807922E+02
2.591048113E+01  3.358117371E+02
2.592522192E+01  3.368161621E+02
2.593996272E+01  3.366901855E+02
2.595470351E+01  3.367504883E+02
2.596944430E+01  3.366567993E+02
2.598418509E+01  3.365898438E+02
2.599892589E+01  3.371056213E+02
2.601366668E+01  3.371581726E+02
2.602840747E+01  3.376148376E+02
2.604314826E+01  3.373452148E+02
2.605788905E+01  3.377686157E+02
2.607262985E+01  3.368512878E+02
2.608737064E+01  3.353565979E+02
2.610211143E+01  3.347179260E+02
2.611685222E+01  3.356969910E+02
2.613159301E+01  3.362314453E+02
2.614633381E+01  3.374509888E+02
2.616107460E+01  3.374280396E+02
2.617581539E+01  3.366504517E+02
2.619055618E+01  3.359488525E+02
2.620529697E+01  3.358148804E+02
2.622003777E+01  3.355836792E+02
2.623477856E+01  3.349901733E+02
2.624951935E+01  3.349681702E+02
2.626426014E+01  3.354519043E+02
2.627900094E+01  3.358182068E+02
2.629374173E+01  3.360845947E+02
2.630848252E+01  3.367239075E+02
2.632322331E+01  3.365517273E+02
2.633796410E+01  3.357066345E+02
2.635270490E+01  3.353674927E+02
2.636744569E+01  3.356795044E+02
2.638218648E+01  3.366879272E+02
2.639692727E+01  3.378224487E+02
2.641166806E+01  3.384467163E+02
2.642640886E+01  3.385732727E+02
2.644114965E+01  3.391353760E+02
2.645589044E+01  3.391882935E+02
2.647063123E+01  3.388887024E+02
2.648537202E+01  3.390332031E+02
2.650011282E+01  3.400669861E+02
2.651485361E+01  3.413843994E+02
2.652959440E+01  3.409613953E+02
2.654433519E+01  3.408413086E+02
2.655907599E+01  3.421992798E+02
2.657381678E+01  3.433598938E+02
2.658855757E+01  3.438034058E+02
2.660329836E+01  3.460876160E+02
2.661803915E+01  3.464849854E+02
2.663277995E+01  3.428570862E+02
2.664752074E+01  3.374161682E+02
2.666226153E+01  3.369000244E+02
2.667700232E+01  3.396206055E+02
2.669174311E+01  3.410375061E+02
2.670648391E+01  3.384138794E+02
2.672122470E+01  3.338378601E+02
2.673596549E+01  3.339649963E+02
2.675070628E+01  3.361040344E+02
2.676544707E+01  3.359339294E+02
2.678018787E+01  3.344042358E+02
2.679492866E+01  3.343481140E+02
2.680966945E+01  3.339875183E+02
2.682441024E+01  3.331604004E+02
2.683915104E+01  3.327979126E+02
2.685389183E+01  3.337180481E+02
2.686863262E+01  3.337636414E+02
2.688337341E+01  3.319606323E+02
2.689811420E+01  3.313462524E+02
2.691285500E+01  3.313260498E+02
2.692759579E+01  3.308263855E+02
2.694233658E+01  3.312951965E+02
2.695707737E+01  3.315612793E+02
2.697181816E+01  3.310290527E+02
2.698655896E+01  3.316884155E+02
2.700129975E+01  3.336782227E+02
2.701604054E+01  3.359461975E+02
2.703078133E+01  3.379913635E+02
2.704552213E+01  3.389272156E+02
2.706026292E+01  3.376417847E+02
2.707500371E+01  3.373493652E+02
2.708974450E+01  3.368071289E+02
2.710448529E+01  3.374308472E+02
2.711922609E+01  3.367939453E+02
2.713396688E+01  3.355676880E+02
2.714870767E+01  3.352836914E+02
2.716344846E+01  3.355041199E+02
2.717818925E+01  3.352904358E+02
2.719293005E+01  3.335052490E+02
2.720767084E+01  3.331679993E+02
2.722241163E+01  3.321904602E+02
2.723715242E+01  3.319909668E+02
2.725189321E+01  3.330907288E+02
2.726663401E+01  3.338902588E+02
2.728137480E+01  3.330118103E+02
2.729611559E+01  3.316634827E+02
2.731085638E+01  3.311738586E+02
2.732559718E+01  3.312184143E+02
2.734033797E+01  3.316292419E+02
2.735507876E+01  3.307261047E+02
2.736981955E+01  3.298296509E+02
2.738456034E+01  3.296047363E+02
2.739930114E+01  3.307673035E+02
2.741404193E+01  3.307656860E+02
2.742878272E+01  3.304873962E+02
2.744352351E+01  3.297619019E+02
2.745826430E+01  3.286217651E+02
2.747300510E+01  3.284816895E+02
2.748774589E+01  3.284675293E+02
2.750248668E+01  3.280438232E+02
2.751722747E+01  3.283051758E+02
2.753196826E+01  3.284172363E+02
2.754670906E+01  3.282121277E+02
2.756144985E+01  3.281575317E+02
2.757619064E+01  3.288966064E+02
2.759093143E+01  3.294241638E+02
2.760567223E+01  3.289322815E+02
2.762041302E+01  3.287542725E+02
2.763515381E+01  3.287314148E+02
2.764989460E+01  3.283167725E+02
2.766463539E+01  3.285866089E+02
2.767937619E+01  3.286466675E+02
2.769411698E+01  3.289737244E+02
2.770885777E+01  3.286096497E+02
2.772359856E+01  3.281664429E+02
2.773833935E+01  3.282743225E+02
2.775308015E+01  3.276315613E+02
2.776782094E+01  3.282520142E+02
2.778256173E+01  3.291676331E+02
2.779730252E+01  3.286950989E+02
2.781204331E+01  3.282232056E+02
2.782678411E+01  3.280232544E+02
2.784152490E+01  3.292896118E+02
2.785626569E+01  3.301524048E+02
2.787100648E+01  3.299461060E+02
2.788574728E+01  3.284699402E+02
2.790048807E+01  3.273666382E+02
2.791522886E+01  3.269858093E+02
2.792996965E+01  3.275567322E+02
2.794471044E+01  3.285432739E+02
2.795945124E+01  3.290116272E+02
2.797419203E+01  3.286934204E+02
2.798893282E+01  3.275889893E+02
2.800367361E+01  3.261331482E+02
2.801841440E+01  3.264740906E+02
2.803315520E+01  3.267290649E+02
2.804789599E+01  3.263869629E+02
2.806263678E+01  3.260966187E+02
2.807737757E+01  3.252626038E+02
2.809211837E+01  3.240059814E+02
2.810685916E+01  3.244407654E+02
2.812159995E+01  3.244724731E+02
2.813634074E+01  3.239623718E+02
2.815108153E+01  3.232394714E+02
2.816582233E+01  3.230895996E+02
2.818056312E+01  3.231501770E+02
2.819530391E+01  3.233147888E+02
2.821004470E+01  3.235234680E+02
2.822478549E+01  3.231477051E+02
2.823952629E+01  3.233859253E+02
2.825426708E+01  3.233436279E+02
2.826900787E+01  3.227309875E+02
2.828374866E+01  3.212083435E+02
2.829848945E+01  3.215683899E+02
2.831323025E+01  3.219010010E+02
2.832797104E+01  3.216069946E+02
2.834271183E+01  3.218915405E+02
2.835745262E+01  3.216259460E+02
2.837219342E+01  3.213224792E+02
2.838693421E+01  3.198507080E+02
2.840167500E+01  3.198334961E+02
2.841641579E+01  3.205080566E+02
2.843115658E+01  3.209147034E+02
2.844589738E+01  3.223212280E+02
2.846063817E+01  3.225895081E+02
2.847537896E+01  3.212897339E+02
2.849011975E+01  3.202225952E+02
2.850486054E+01  3.209828796E+02
2.851960134E+01  3.207270508E+02
2.853434213E+01  3.205821228E+02
2.854908292E+01  3.205656128E+02
2.856382371E+01  3.200373840E+02
2.857856450E+01  3.196140137E+02
2.859330530E+01  3.201550598E+02
2.860804609E+01  3.202810669E+02
2.862278688E+01  3.210700073E+02
2.863752767E+01  3.206904602E+02
2.865226847E+01  3.210516663E+02
2.866700926E+01  3.210358582E+02
2.868175005E+01  3.209847412E+02
2.869649084E+01  3.211345520E+02
2.871123163E+01  3.208528442E+02
2.872597243E+01  3.203305969E+02
2.874071322E+01  3.199390564E+02
2.875545401E+01  3.199958191E+02
2.877019480E+01  3.198843079E+02
2.878493559E+01  3.207548218E+02
2.879967639E+01  3.207503357E+02
2.881441718E+01  3.204825439E+02
2.882915797E+01  3.201115112E+02
2.884389876E+01  3.192355042E+02
2.885863955E+01  3.194503479E+02
2.887338035E+01  3.200588684E+02
2.888812114E+01  3.198955078E+02
2.890286193E+01  3.194863281E+02
2.891760272E+01  3.202325134E+02
2.893234352E+01  3.202046814E+02
2.894708431E+01  3.195641174E+02
2.896182510E+01  3.201400146E+02
2.897656589E+01  3.205688171E+02
2.899130668E+01  3.203947449E+02
2.900604748E+01  3.202044983E+02
2.902078827E+01  3.205760803E+02
2.903552906E+01  3.206162415E+02
2.905026985E+01  3.209349976E+02
2.906501064E+01  3.221380920E+02
2.907975144E+01  3.227582397E+02
2.909449223E+01  3.234226990E+02
2.910923302E+01  3.236337891E+02
2.912397381E+01  3.233290710E+02
2.913871461E+01  3.238504944E+02
2.915345540E+01  3.249505005E+02
2.916819619E+01  3.260842285E+02
2.918293698E+01  3.256461792E+02
2.919767777E+01  3.248001404E+02
2.921241857E+01  3.248352966E+02
2.922715936E+01  3.235755615E+02
2.924190015E+01  3.226150513E+02
2.925664094E+01  3.221694946E+02
2.927138173E+01  3.220791321E+02
2.928612253E+01  3.221889343E+02
2.930086332E+01  3.219950867E+02
2.931560411E+01  3.207439880E+02
2.933034490E+01  3.188380737E+02
2.934508569E+01  3.181295166E+02
2.935982649E+01  3.192942505E+02
2.937456728E+01  3.197530212E+02
2.938930807E+01  3.199678650E+02
2.940404886E+01  3.194166870E+02
2.941878966E+01  3.195833740E+02
2.943353045E+01  3.197251892E+02
2.944827124E+01  3.194748535E+02
2.946301203E+01  3.194789734E+02
2.947775282E+01  3.189053040E+02
2.949249362E+01  3.186804504E+02
2.950723441E+01  3.175031433E+02
2.952197520E+01  3.164224854E+02
2.953671599E+01  3.163286133E+02
2.955145678E+01  3.160805054E+02
2.956619758E+01  3.166606750E+02
2.958093837E+01  3.165693970E+02
2.959567916E+01  3.153769226E+02
2.961041995E+01  3.154643860E+02
2.962516074E+01  3.153674622E+02
2.963990154E+01  3.152813416E+02
2.965464233E+01  3.163395386E+02
2.966938312E+01  3.153136902E+02
2.968412391E+01  3.133629150E+02
2.969886471E+01  3.141255493E+02
2.971360550E+01  3.151874390E+02
2.972834629E+01  3.153543091E+02
2.974308708E+01  3.147344666E+02
2.975782787E+01  3.138200073E+02
2.977256867E+01  3.125250549E+02
2.978730946E+01  3.117324829E+02
2.980205025E+01  3.107225037E+02
2.981679104E+01  3.101860352E+02
2.983153183E+01  3.104190063E+02
2.984627263E+01  3.102593079E+02
2.986101342E+01  3.095452271E+02
2.987575421E+01  3.083040466E+02
2.989049500E+01  3.062075500E+02
2.990523579E+01  3.034842224E+02
2.991997659E+01  3.022204285E+02
2.993471738E+01  3.026759338E+02
2.994945817E+01  3.023006897E+02
2.996419896E+01  3.000242310E+02
2.997893976E+01  2.967688904E+02
2.999368055E+01  2.956807251E+02
3.000842134E+01  2.948044739E+02
3.002316213E+01  2.935232849E+02
3.003790292E+01  2.924272156E+02
3.005264372E+01  2.910621643E+02
3.006738451E+01  2.885630798E+02
3.008212530E+01  2.858993530E+02
3.009686609E+01  2.851833496E+02
3.011160688E+01  2.840652161E+02
3.012634768E+01  2.817074890E+02
3.014108847E+01  2.792690125E+02
3.015582926E+01  2.775429993E+02
3.017057005E+01  2.762453308E+02
3.018531085E+01  2.742846985E+02
3.020005164E+01  2.702715149E+02
3.021479243E+01  2.671634216E+02
3.022953322E+01  2.638957825E+02
3.024427401E+01  2.602067871E+02
3.025901481E+01  2.563531799E+02
3.027375560E+01  2.532514191E+02
3.028849639E+01  2.495371857E+02
3.030323718E+01  2.464880066E+02
3.031797797E+01  2.444234161E+02
3.033271877E+01  2.437431641E+02
3.034745956E+01  2.427912903E+02
3.036220035E+01  2.404630127E+02
3.037694114E+01  2.381554413E+02
3.039168193E+01  2.368605652E+02
3.040642273E+01  2.352455750E+02
3.042116352E+01  2.336699524E+02
3.043590431E+01  2.316382294E+02
3.045064510E+01  2.305354919E+02
3.046538590E+01  2.295848999E+02
3.048012669E+01  2.276529541E+02
3.049486748E+01  2.262620239E+02
3.050960827E+01  2.250681458E+02
3.052434906E+01  2.238726044E+02
3.053908986E+01  2.214223633E+02
3.055383065E+01  2.191114807E+02
3.056857144E+01  2.172390594E+02
3.058331223E+01  2.158655853E+02
3.059805302E+01  2.147571869E+02
3.061279382E+01  2.138778839E+02
3.062753461E+01  2.121143494E+02
3.064227540E+01  2.095576630E+02
3.065701619E+01  2.078945007E+02
3.067175698E+01  2.063870850E+02
3.068649778E+01  2.048562317E+02
3.070123857E+01  2.036903076E+02
3.071597936E+01  2.017398834E+02
3.073072015E+01  2.003641205E+02
3.074546095E+01  1.987474823E+02
3.076020174E+01  1.965476227E+02
3.077494253E+01  1.949927216E+02
3.078968332E+01  1.930605164E+02
3.080442411E+01  1.914015198E+02
3.081916491E+01  1.897888489E+02
3.083390570E+01  1.870829315E+02
3.084864649E+01  1.842524414E+02
3.086338728E+01  1.829467621E+02
3.087812807E+01  1.822982330E+02
3.089286887E+01  1.805572968E+02
3.090760966E+01  1.787190552E+02
3.092235045E+01  1.765313568E+02
3.093709124E+01  1.748800659E+02
3.095183203E+01  1.726265259E+02
3.096657283E+01  1.707836761E+02
3.098131362E+01  1.689590302E+02
3.099605441E+01  1.674723969E+02
3.101079520E+01  1.660011292E+02
3.102553600E+01  1.646999969E+02
3.104027679E+01  1.635868988E+02
3.105501758E+01  1.617446899E+02
3.106975837E+01  1.593261719E+02
3.108449916E+01  1.583330383E+02
3.109923996E+01  1.579906464E+02
3.111398075E+01  1.556362152E+02
3.112872154E+01  1.550090485E+02
3.114346233E+01  1.539866180E+02
3.115820312E+01  1.521212006E+02
3.117294392E+01  1.507290497E+02
3.118768471E+01  1.467120209E+02
3.120242550E+01  1.446943207E+02
3.121716629E+01  1.423532410E+02
3.123190709E+01  1.405683441E+02
3.124664788E+01  1.391909180E+02
3.126138867E+01  1.372460785E+02
3.127612946E+01  1.349657898E+02
3.129087025E+01  1.335727234E+02
3.130561105E+01  1.319243317E+02
3.132035184E+01  1.296429901E+02
3.133509263E+01  1.275285568E+02
3.134983342E+01  1.264779892E+02
3.136457421E+01  1.258480835E+02
3.137931501E+01  1.245467682E+02
3.139405580E+01  1.227101212E+02
3.140879659E+01  1.206531906E+02
3.142353738E+01  1.188405380E+02
3.143827817E+01  1.167734604E+02
3.145301897E+01  1.144571838E+02
3.146775976E+01  1.138674393E+02
3.148250055E+01  1.136491852E+02
3.149724134E+01  1.114889450E+02
3.151198214E+01  1.091706161E+02
3.152672293E+01  1.079158859E+02
3.154146372E+01  1.063425827E+02
3.155620451E+01  1.047148743E+02
3.157094530E+01  1.028943405E+02
3.158568610E+01  1.010774460E+02
3.160042689E+01  9.993906403E+01
3.161516768E+01  9.994585419E+01
3.162990847E+01  9.904608917E+01
3.164464926E+01  9.655500793E+01
3.165939006E+01  9.290287018E+01
3.167413085E+01  9.013928223E+01
3.168887164E+01  9.013290405E+01
3.170361243E+01  8.907914734E+01
3.171835322E+01  8.772367859E+01
3.173309402E+01  8.581951904E+01
3.174783481E+01  8.472650909E+01
3.176257560E+01  8.377980042E+01
3.177731639E+01  8.369122314E+01
3.179205719E+01  8.265060425E+01
3.180679798E+01  7.951276398E+01
3.182153877E+01  7.756951141E+01
3.183627956E+01  7.552677917E+01
3.185102035E+01  7.522858429E+01
3.186576115E+01  7.643225098E+01
3.188050194E+01  7.588154602E+01
3.189524273E+01  7.609996033E+01
3.190998352E+01  7.418022156E+01
3.192472431E+01  7.166282654E+01
3.193946511E+01  7.078962708E+01
3.195420590E+01  6.979830170E+01
3.196894669E+01  6.818770599E+01
3.198368748E+01  6.275159073E+01
3.199842827E+01  6.262849426E+01
3.201316907E+01  6.239774323E+01
3.202790986E+01  6.158818054E+01
3.204265065E+01  6.158818054E+01
3.205739144E+01  4.078280258E+01
3.207213224E+01  4.079029083E+01
3.208687303E+01  4.079345322E+01
