# == pyFAI calibration ==
# Distance Sample to Detector: 0.11507480176033233 m
# PONI: 5.477e-03, 4.716e-03 m
# Rotations: 0.004686 0.005536 0.000000 rad
# 
# == Fit2d calibration ==
# Distance Sample-beamCenter: 115.078 mm
# Center: x=55.690, y=81.516 pix
# Tilt: 0.416 deg  TiltPlanRot: 130.247 deg
# 
# Detector Detector	 Spline= None	 PixelSize= 7.500e-05, 7.500e-05 m
#    Detector has a mask: False 
#    Detector has a dark current: False 
#    detector has a flat field: False 
# 
# Wavelength: 4.833e-11 m
# Mask applied: None
# Dark current applied: None
# Flat field applied: None
# Polarization factor: None
# Normalization factor: None
#
# 2th_deg	 I
1.131209591E+00  5.874874115E+01
1.145950384E+00  7.505943298E+01
1.160691176E+00  9.086827087E+01
1.175431968E+00  1.023896027E+02
1.190172760E+00  1.173568802E+02
1.204913552E+00  1.279607620E+02
1.219654344E+00  1.392387238E+02
1.234395136E+00  1.453687592E+02
1.249135928E+00  1.519858704E+02
1.263876720E+00  1.613695526E+02
1.278617513E+00  1.669367218E+02
1.293358305E+00  1.702369690E+02
1.308099097E+00  1.717367401E+02
1.322839889E+00  1.775346680E+02
1.337580681E+00  1.845839691E+02
1.352321473E+00  1.895868835E+02
1.367062265E+00  1.944845581E+02
1.381803057E+00  1.969802094E+02
1.396543850E+00  1.999099884E+02
1.411284642E+00  2.013033142E+02
1.426025434E+00  2.023623199E+02
1.440766226E+00  2.069141693E+02
1.455507018E+00  2.105766754E+02
1.470247810E+00  2.131398773E+02
1.484988602E+00  2.166899872E+02
1.499729394E+00  2.188846130E+02
1.514470186E+00  2.212540894E+02
1.529210979E+00  2.230497284E+02
1.543951771E+00  2.234798126E+02
1.558692563E+00  2.254590302E+02
1.573433355E+00  2.251170044E+02
1.588174147E+00  2.270384521E+02
1.602914939E+00  2.281260376E+02
1.617655731E+00  2.319204559E+02
1.632396523E+00  2.345867767E+02
1.647137315E+00  2.374682159E+02
1.661878108E+00  2.378169403E+02
1.676618900E+00  2.372376556E+02
1.691359692E+00  2.383223267E+02
1.706100484E+00  2.402927094E+02
1.720841276E+00  2.426699524E+02
1.735582068E+00  2.425320435E+02
1.750322860E+00  2.432553253E+02
1.765063652E+00  2.434088135E+02
1.779804444E+00  2.443976898E+02
1.794545237E+00  2.447541962E+02
1.809286029E+00  2.461869049E+02
1.824026821E+00  2.485836182E+02
1.838767613E+00  2.493609009E+02
1.853508405E+00  2.512801666E+02
1.868249197E+00  2.513708038E+02
1.882989989E+00  2.520504761E+02
1.897730781E+00  2.525733337E+02
1.912471573E+00  2.537420502E+02
1.927212366E+00  2.565186462E+02
1.941953158E+00  2.579444275E+02
1.956693950E+00  2.599273376E+02
1.971434742E+00  2.602853394E+02
1.986175534E+00  2.612451477E+02
2.000916326E+00  2.639346619E+02
2.015657118E+00  2.661670227E+02
2.030397910E+00  2.681208191E+02
2.045138702E+00  2.697077332E+02
2.059879495E+00  2.706214600E+02
2.074620287E+00  2.729584961E+02
2.089361079E+00  2.744160767E+02
2.104101871E+00  2.759942932E+02
2.118842663E+00  2.771605225E+02
2.133583455E+00  2.781183472E+02
2.148324247E+00  2.803265686E+02
2.163065039E+00  2.801132812E+02
2.177805831E+00  2.805130310E+02
2.192546624E+00  2.814906616E+02
2.207287416E+00  2.821475220E+02
2.222028208E+00  2.849736633E+02
2.236769000E+00  2.862056580E+02
2.251509792E+00  2.867491455E+02
2.266250584E+00  2.864405212E+02
2.280991376E+00  2.862075806E+02
2.295732168E+00  2.870491333E+02
2.310472960E+00  2.876656189E+02
2.325213753E+00  2.876185913E+02
2.339954545E+00  2.882146301E+02
2.354695337E+00  2.884565125E+02
2.369436129E+00  2.893897095E+02
2.384176921E+00  2.901582947E+02
2.398917713E+00  2.902456970E+02
2.413658505E+00  2.911729126E+02
2.428399297E+00  2.917720032E+02
2.443140089E+00  2.918746948E+02
2.457880882E+00  2.908422241E+02
2.472621674E+00  2.901527100E+02
2.487362466E+00  2.902604980E+02
2.502103258E+00  2.914382324E+02
2.516844050E+00  2.922062378E+02
2.531584842E+00  2.926050415E+02
2.546325634E+00  2.910635376E+02
2.561066426E+00  2.906287231E+02
2.575807219E+00  2.907131653E+02
2.590548011E+00  2.915151672E+02
2.605288803E+00  2.906720276E+02
2.620029595E+00  2.913732910E+02
2.634770387E+00  2.906409912E+02
2.649511179E+00  2.904415894E+02
2.664251971E+00  2.898402710E+02
2.678992763E+00  2.894164429E+02
2.693733555E+00  2.901944885E+02
2.708474348E+00  2.895314636E+02
2.723215140E+00  2.896548462E+02
2.737955932E+00  2.892879028E+02
2.752696724E+00  2.888634338E+02
2.767437516E+00  2.893746948E+02
2.782178308E+00  2.880202026E+02
2.796919100E+00  2.866745605E+02
2.811659892E+00  2.867494507E+02
2.826400684E+00  2.871432800E+02
2.841141477E+00  2.876703796E+02
2.855882269E+00  2.868823547E+02
2.870623061E+00  2.868359680E+02
2.885363853E+00  2.864423218E+02
2.900104645E+00  2.865282898E+02
2.914845437E+00  2.866754761E+02
2.929586229E+00  2.862227478E+02
2.944327021E+00  2.855961609E+02
2.959067813E+00  2.839555969E+02
2.973808606E+00  2.834031067E+02
2.988549398E+00  2.831123352E+02
3.003290190E+00  2.834695435E+02
3.018030982E+00  2.834089355E+02
3.032771774E+00  2.835501099E+02
3.047512566E+00  2.841678162E+02
3.062253358E+00  2.844831543E+02
3.076994150E+00  2.839518738E+02
3.091734942E+00  2.828020020E+02
3.106475735E+00  2.819325256E+02
3.121216527E+00  2.809627686E+02
3.135957319E+00  2.802711182E+02
3.150698111E+00  2.803581238E+02
3.165438903E+00  2.810693970E+02
3.180179695E+00  2.822676086E+02
3.194920487E+00  2.836419373E+02
3.209661279E+00  2.843247070E+02
3.224402071E+00  2.838754578E+02
3.239142864E+00  2.827067261E+02
3.253883656E+00  2.806935425E+02
3.268624448E+00  2.801102905E+02
3.283365240E+00  2.800434875E+02
3.298106032E+00  2.802988281E+02
3.312846824E+00  2.806884766E+02
3.327587616E+00  2.809550171E+02
3.342328408E+00  2.810617371E+02
3.357069200E+00  2.812714844E+02
3.371809993E+00  2.805503540E+02
3.386550785E+00  2.796503296E+02
3.401291577E+00  2.789504700E+02
3.416032369E+00  2.782543030E+02
3.430773161E+00  2.781895447E+02
3.445513953E+00  2.785071716E+02
3.460254745E+00  2.779976196E+02
3.474995537E+00  2.780071106E+02
3.489736329E+00  2.792372437E+02
3.504477122E+00  2.790445862E+02
3.519217914E+00  2.779978333E+02
3.533958706E+00  2.760979919E+02
3.548699498E+00  2.760375366E+02
3.563440290E+00  2.761453857E+02
3.578181082E+00  2.763570251E+02
3.592921874E+00  2.761464233E+02
3.607662666E+00  2.758315125E+02
3.622403458E+00  2.754369202E+02
3.637144251E+00  2.742476501E+02
3.651885043E+00  2.729350281E+02
3.666625835E+00  2.722075500E+02
3.681366627E+00  2.713610535E+02
3.696107419E+00  2.706759644E+02
3.710848211E+00  2.698353577E+02
3.725589003E+00  2.705587463E+02
3.740329795E+00  2.712273560E+02
3.755070587E+00  2.735628357E+02
3.769811380E+00  2.742843018E+02
3.784552172E+00  2.763230286E+02
3.799292964E+00  2.774191895E+02
3.814033756E+00  2.792005615E+02
3.828774548E+00  2.802607727E+02
3.843515340E+00  2.800182190E+02
3.858256132E+00  2.808082581E+02
3.872996924E+00  2.805597534E+02
3.887737717E+00  2.795588989E+02
3.902478509E+00  2.794682007E+02
3.917219301E+00  2.790186157E+02
3.931960093E+00  2.783612671E+02
3.946700885E+00  2.768593750E+02
3.961441677E+00  2.756222229E+02
3.976182469E+00  2.741759338E+02
3.990923261E+00  2.739556274E+02
4.005664053E+00  2.729281921E+02
4.020404846E+00  2.707533569E+02
4.035145638E+00  2.695623474E+02
4.049886430E+00  2.685075073E+02
4.064627222E+00  2.681337585E+02
4.079368014E+00  2.669972534E+02
4.094108806E+00  2.661378479E+02
4.108849598E+00  2.653085632E+02
4.123590390E+00  2.643800964E+02
4.138331182E+00  2.639173889E+02
4.153071975E+00  2.629029541E+02
4.167812767E+00  2.629377441E+02
4.182553559E+00  2.623989868E+02
4.197294351E+00  2.619420776E+02
4.212035143E+00  2.614643250E+02
4.226775935E+00  2.606211243E+02
4.241516727E+00  2.597852173E+02
4.256257519E+00  2.590393066E+02
4.270998311E+00  2.589061890E+02
4.285739104E+00  2.583908386E+02
4.300479896E+00  2.583766479E+02
4.315220688E+00  2.573298035E+02
4.329961480E+00  2.561950073E+02
4.344702272E+00  2.555020294E+02
4.359443064E+00  2.554499664E+02
4.374183856E+00  2.552859802E+02
4.388924648E+00  2.556915283E+02
4.403665440E+00  2.546659088E+02
4.418406233E+00  2.539075317E+02
4.433147025E+00  2.526857452E+02
4.447887817E+00  2.526317444E+02
4.462628609E+00  2.521080627E+02
4.477369401E+00  2.512929535E+02
4.492110193E+00  2.507523346E+02
4.506850985E+00  2.501318970E+02
4.521591777E+00  2.501979370E+02
4.536332569E+00  2.499626007E+02
4.551073362E+00  2.496050720E+02
4.565814154E+00  2.498138580E+02
4.580554946E+00  2.496459198E+02
4.595295738E+00  2.496835785E+02
4.610036530E+00  2.489688721E+02
4.624777322E+00  2.494063568E+02
4.639518114E+00  2.495892944E+02
4.654258906E+00  2.493892975E+02
4.668999698E+00  2.487035217E+02
4.683740491E+00  2.483823700E+02
4.698481283E+00  2.475984039E+02
4.713222075E+00  2.473686066E+02
4.727962867E+00  2.469191284E+02
4.742703659E+00  2.471617584E+02
4.757444451E+00  2.466242371E+02
4.772185243E+00  2.457007294E+02
4.786926035E+00  2.452689056E+02
4.801666827E+00  2.455636749E+02
4.816407620E+00  2.462360077E+02
4.831148412E+00  2.466161346E+02
4.845889204E+00  2.454668732E+02
4.860629996E+00  2.450135193E+02
4.875370788E+00  2.444230499E+02
4.890111580E+00  2.445677948E+02
4.904852372E+00  2.442794189E+02
4.919593164E+00  2.438296356E+02
4.934333956E+00  2.438941498E+02
4.949074749E+00  2.434058533E+02
4.963815541E+00  2.432939911E+02
4.978556333E+00  2.424432678E+02
4.993297125E+00  2.420367279E+02
5.008037917E+00  2.419754639E+02
5.022778709E+00  2.418608551E+02
5.037519501E+00  2.418581696E+02
5.052260293E+00  2.419005890E+02
5.067001086E+00  2.414970398E+02
5.081741878E+00  2.409253540E+02
5.096482670E+00  2.409930115E+02
5.111223462E+00  2.404513092E+02
5.125964254E+00  2.402363129E+02
5.140705046E+00  2.404112701E+02
5.155445838E+00  2.406535950E+02
5.170186630E+00  2.408543396E+02
5.184927422E+00  2.400267487E+02
5.199668215E+00  2.396980438E+02
5.214409007E+00  2.396109467E+02
5.229149799E+00  2.392307129E+02
5.243890591E+00  2.381195526E+02
5.258631383E+00  2.379702148E+02
5.273372175E+00  2.377629852E+02
5.288112967E+00  2.376332550E+02
5.302853759E+00  2.376478577E+02
5.317594551E+00  2.372115631E+02
5.332335344E+00  2.367429810E+02
5.347076136E+00  2.355285034E+02
5.361816928E+00  2.349949036E+02
5.376557720E+00  2.357946014E+02
5.391298512E+00  2.366071472E+02
5.406039304E+00  2.373992767E+02
5.420780096E+00  2.373582611E+02
5.435520888E+00  2.365146179E+02
5.450261680E+00  2.369170380E+02
5.465002473E+00  2.365590668E+02
5.479743265E+00  2.362114410E+02
5.494484057E+00  2.357315826E+02
5.509224849E+00  2.360284119E+02
5.523965641E+00  2.361840973E+02
5.538706433E+00  2.359017944E+02
5.553447225E+00  2.345288239E+02
5.568188017E+00  2.343923950E+02
5.582928809E+00  2.343047791E+02
5.597669602E+00  2.348431091E+02
5.612410394E+00  2.350218964E+02
5.627151186E+00  2.349953613E+02
5.641891978E+00  2.348554382E+02
5.656632770E+00  2.350810852E+02
5.671373562E+00  2.349790192E+02
5.686114354E+00  2.357471466E+02
5.700855146E+00  2.360624695E+02
5.715595938E+00  2.373100739E+02
5.730336731E+00  2.376390686E+02
5.745077523E+00  2.379012756E+02
5.759818315E+00  2.381278534E+02
5.774559107E+00  2.385720062E+02
5.789299899E+00  2.390424500E+02
5.804040691E+00  2.394965363E+02
5.818781483E+00  2.385651550E+02
5.833522275E+00  2.375368347E+02
5.848263067E+00  2.359942474E+02
5.863003860E+00  2.359403076E+02
5.877744652E+00  2.351118774E+02
5.892485444E+00  2.354716492E+02
5.907226236E+00  2.350549622E+02
5.921967028E+00  2.346721039E+02
5.936707820E+00  2.342732086E+02
5.951448612E+00  2.336096344E+02
5.966189404E+00  2.338974457E+02
5.980930196E+00  2.331299133E+02
5.995670989E+00  2.338270416E+02
6.010411781E+00  2.335990448E+02
6.025152573E+00  2.341408234E+02
6.039893365E+00  2.336642609E+02
6.054634157E+00  2.341815186E+02
6.069374949E+00  2.338124390E+02
6.084115741E+00  2.339340820E+02
6.098856533E+00  2.336298981E+02
6.113597325E+00  2.334418793E+02
6.128338118E+00  2.337595215E+02
6.143078910E+00  2.341811066E+02
6.157819702E+00  2.352048950E+02
6.172560494E+00  2.348652802E+02
6.187301286E+00  2.343042603E+02
6.202042078E+00  2.331364288E+02
6.216782870E+00  2.330923157E+02
6.231523662E+00  2.335045929E+02
6.246264454E+00  2.338910675E+02
6.261005247E+00  2.348429871E+02
6.275746039E+00  2.348401794E+02
6.290486831E+00  2.349577942E+02
6.305227623E+00  2.344400177E+02
6.319968415E+00  2.344810638E+02
6.334709207E+00  2.345441589E+02
6.349449999E+00  2.345214233E+02
6.364190791E+00  2.340097656E+02
6.378931584E+00  2.346170807E+02
6.393672376E+00  2.357682953E+02
6.408413168E+00  2.358887024E+02
6.423153960E+00  2.356678925E+02
6.437894752E+00  2.352425995E+02
6.452635544E+00  2.362808838E+02
6.467376336E+00  2.362470551E+02
6.482117128E+00  2.361066437E+02
6.496857920E+00  2.356205750E+02
6.511598713E+00  2.350978699E+02
6.526339505E+00  2.353969421E+02
6.541080297E+00  2.355999756E+02
6.555821089E+00  2.373213043E+02
6.570561881E+00  2.374458771E+02
6.585302673E+00  2.375674896E+02
6.600043465E+00  2.370184631E+02
6.614784257E+00  2.374761200E+02
6.629525049E+00  2.370093536E+02
6.644265842E+00  2.364909668E+02
6.659006634E+00  2.356875458E+02
6.673747426E+00  2.366219482E+02
6.688488218E+00  2.374863892E+02
6.703229010E+00  2.373894806E+02
6.717969802E+00  2.370325317E+02
6.732710594E+00  2.361322479E+02
6.747451386E+00  2.362007599E+02
6.762192178E+00  2.369138794E+02
6.776932971E+00  2.373752899E+02
6.791673763E+00  2.384978790E+02
6.806414555E+00  2.386278839E+02
6.821155347E+00  2.387145691E+02
6.835896139E+00  2.384905243E+02
6.850636931E+00  2.389677582E+02
6.865377723E+00  2.386147614E+02
6.880118515E+00  2.381952057E+02
6.894859307E+00  2.378025208E+02
6.909600100E+00  2.382017670E+02
6.924340892E+00  2.389248352E+02
6.939081684E+00  2.388105774E+02
6.953822476E+00  2.385532379E+02
6.968563268E+00  2.383266296E+02
6.983304060E+00  2.389391785E+02
6.998044852E+00  2.391261749E+02
7.012785644E+00  2.391687775E+02
7.027526436E+00  2.397001038E+02
7.042267229E+00  2.399773407E+02
7.057008021E+00  2.412228546E+02
7.071748813E+00  2.413537903E+02
7.086489605E+00  2.416714478E+02
7.101230397E+00  2.411304321E+02
7.115971189E+00  2.406744995E+02
7.130711981E+00  2.402563934E+02
7.145452773E+00  2.408548126E+02
7.160193565E+00  2.408658142E+02
7.174934358E+00  2.411655426E+02
7.189675150E+00  2.411831055E+02
7.204415942E+00  2.417499542E+02
7.219156734E+00  2.418416748E+02
7.233897526E+00  2.420303040E+02
7.248638318E+00  2.421047516E+02
7.263379110E+00  2.413819427E+02
7.278119902E+00  2.407524414E+02
7.292860694E+00  2.393391418E+02
7.307601487E+00  2.395352783E+02
7.322342279E+00  2.401867523E+02
7.337083071E+00  2.419135437E+02
7.351823863E+00  2.421609039E+02
7.366564655E+00  2.418254700E+02
7.381305447E+00  2.414879913E+02
7.396046239E+00  2.424111481E+02
7.410787031E+00  2.431489868E+02
7.425527823E+00  2.434423828E+02
7.440268616E+00  2.432775879E+02
7.455009408E+00  2.432459412E+02
7.469750200E+00  2.436213379E+02
7.484490992E+00  2.438972778E+02
7.499231784E+00  2.444363556E+02
7.513972576E+00  2.445050201E+02
7.528713368E+00  2.448964844E+02
7.543454160E+00  2.447287140E+02
7.558194953E+00  2.445066071E+02
7.572935745E+00  2.442549591E+02
7.587676537E+00  2.446442719E+02
7.602417329E+00  2.451447906E+02
7.617158121E+00  2.454748383E+02
7.631898913E+00  2.457095032E+02
7.646639705E+00  2.470309448E+02
7.661380497E+00  2.473777008E+02
7.676121289E+00  2.470125122E+02
7.690862082E+00  2.465490112E+02
7.705602874E+00  2.468928375E+02
7.720343666E+00  2.468352356E+02
7.735084458E+00  2.471440735E+02
7.749825250E+00  2.475653687E+02
7.764566042E+00  2.477855377E+02
7.779306834E+00  2.479047089E+02
7.794047626E+00  2.474162445E+02
7.808788418E+00  2.476574249E+02
7.823529211E+00  2.478562622E+02
7.838270003E+00  2.485286865E+02
7.853010795E+00  2.491488953E+02
7.867751587E+00  2.496559753E+02
7.882492379E+00  2.496160583E+02
7.897233171E+00  2.491260986E+02
7.911973963E+00  2.491729431E+02
7.926714755E+00  2.494888611E+02
7.941455547E+00  2.501223145E+02
7.956196340E+00  2.515725555E+02
7.970937132E+00  2.521344147E+02
7.985677924E+00  2.522454834E+02
8.000418716E+00  2.512271729E+02
8.015159508E+00  2.507848663E+02
8.029900300E+00  2.513686218E+02
8.044641092E+00  2.513795776E+02
8.059381884E+00  2.528825989E+02
8.074122676E+00  2.544156036E+02
8.088863469E+00  2.558492889E+02
8.103604261E+00  2.557616119E+02
8.118345053E+00  2.559689026E+02
8.133085845E+00  2.568345032E+02
8.147826637E+00  2.579512329E+02
8.162567429E+00  2.587398682E+02
8.177308221E+00  2.594170532E+02
8.192049013E+00  2.606336975E+02
8.206789805E+00  2.614853516E+02
8.221530598E+00  2.626683655E+02
8.236271390E+00  2.644459839E+02
8.251012182E+00  2.655764160E+02
8.265752974E+00  2.669042053E+02
8.280493766E+00  2.680933533E+02
8.295234558E+00  2.710780334E+02
8.309975350E+00  2.756345520E+02
8.324716142E+00  2.814093933E+02
8.339456934E+00  2.839986267E+02
8.354197727E+00  2.843652344E+02
8.368938519E+00  2.855036011E+02
8.383679311E+00  2.896276245E+02
8.398420103E+00  2.953616333E+02
8.413160895E+00  3.032781372E+02
8.427901687E+00  3.105464783E+02
8.442642479E+00  3.197376099E+02
8.457383271E+00  3.259542236E+02
8.472124063E+00  3.342621765E+02
8.486864856E+00  3.443815613E+02
8.501605648E+00  3.542086182E+02
8.516346440E+00  3.649080200E+02
8.531087232E+00  3.719659729E+02
8.545828024E+00  3.747572327E+02
8.560568816E+00  3.728227539E+02
8.575309608E+00  3.646846924E+02
8.590050400E+00  3.523434448E+02
8.604791192E+00  3.396548767E+02
8.619531985E+00  3.259459229E+02
8.634272777E+00  3.151210632E+02
8.649013569E+00  3.070615234E+02
8.663754361E+00  3.007043457E+02
8.678495153E+00  2.953578796E+02
8.693235945E+00  2.905756531E+02
8.707976737E+00  2.874995422E+02
8.722717529E+00  2.842520142E+02
8.737458321E+00  2.811724854E+02
8.752199114E+00  2.793616943E+02
8.766939906E+00  2.808771973E+02
8.781680698E+00  2.837033386E+02
8.796421490E+00  2.851824951E+02
8.811162282E+00  2.850418091E+02
8.825903074E+00  2.839237366E+02
8.840643866E+00  2.828623352E+02
8.855384658E+00  2.825123291E+02
8.870125451E+00  2.823331299E+02
8.884866243E+00  2.821170349E+02
8.899607035E+00  2.827731628E+02
8.914347827E+00  2.831658020E+02
8.929088619E+00  2.848729248E+02
8.943829411E+00  2.866732483E+02
8.958570203E+00  2.885652466E+02
8.973310995E+00  2.891766968E+02
8.988051787E+00  2.900323181E+02
9.002792580E+00  2.909866333E+02
9.017533372E+00  2.918468018E+02
9.032274164E+00  2.922768860E+02
9.047014956E+00  2.922366333E+02
9.061755748E+00  2.923495483E+02
9.076496540E+00  2.922978210E+02
9.091237332E+00  2.926092834E+02
9.105978124E+00  2.929637756E+02
9.120718916E+00  2.942555237E+02
9.135459709E+00  2.951402283E+02
9.150200501E+00  2.954201660E+02
9.164941293E+00  2.954477539E+02
9.179682085E+00  2.960591736E+02
9.194422877E+00  2.974066772E+02
9.209163669E+00  2.985025024E+02
9.223904461E+00  2.993959961E+02
9.238645253E+00  3.007009888E+02
9.253386045E+00  3.017414551E+02
9.268126838E+00  3.026202698E+02
9.282867630E+00  3.025913086E+02
9.297608422E+00  3.024391479E+02
9.312349214E+00  3.031106567E+02
9.327090006E+00  3.032962646E+02
9.341830798E+00  3.040322571E+02
9.356571590E+00  3.043542786E+02
9.371312382E+00  3.055291748E+02
9.386053174E+00  3.062074890E+02
9.400793967E+00  3.063746338E+02
9.415534759E+00  3.071062317E+02
9.430275551E+00  3.086033936E+02
9.445016343E+00  3.096438904E+02
9.459757135E+00  3.097682495E+02
9.474497927E+00  3.103649597E+02
9.489238719E+00  3.113096313E+02
9.503979511E+00  3.115297546E+02
9.518720303E+00  3.127148743E+02
9.533461096E+00  3.135678711E+02
9.548201888E+00  3.153903809E+02
9.562942680E+00  3.156591797E+02
9.577683472E+00  3.150589905E+02
9.592424264E+00  3.141356201E+02
9.607165056E+00  3.129609985E+02
9.621905848E+00  3.133502808E+02
9.636646640E+00  3.136743774E+02
9.651387432E+00  3.145119324E+02
9.666128225E+00  3.148994141E+02
9.680869017E+00  3.149246216E+02
9.695609809E+00  3.147185364E+02
9.710350601E+00  3.141833191E+02
9.725091393E+00  3.130226746E+02
9.739832185E+00  3.126712952E+02
9.754572977E+00  3.124629517E+02
9.769313769E+00  3.124914551E+02
9.784054561E+00  3.121097107E+02
9.798795354E+00  3.126632690E+02
9.813536146E+00  3.130429077E+02
9.828276938E+00  3.139023743E+02
9.843017730E+00  3.145566406E+02
9.857758522E+00  3.151277771E+02
9.872499314E+00  3.156147461E+02
9.887240106E+00  3.169047852E+02
9.901980898E+00  3.164939880E+02
9.916721690E+00  3.170915833E+02
9.931462483E+00  3.185314636E+02
9.946203275E+00  3.223747253E+02
9.960944067E+00  3.277156677E+02
9.975684859E+00  3.362563171E+02
9.990425651E+00  3.469923401E+02
1.000516644E+01  3.617990112E+02
1.001990724E+01  3.785317688E+02
1.003464803E+01  3.992064514E+02
1.004938882E+01  4.183930359E+02
1.006412961E+01  4.354208679E+02
1.007887040E+01  4.462863770E+02
1.009361120E+01  4.489122009E+02
1.010835199E+01  4.419105225E+02
1.012309278E+01  4.277843628E+02
1.013783357E+01  4.106309509E+02
1.015257436E+01  3.955666809E+02
1.016731516E+01  3.863532410E+02
1.018205595E+01  3.816998596E+02
1.019679674E+01  3.815926514E+02
1.021153753E+01  3.834234314E+02
1.022627832E+01  3.853100891E+02
1.024101912E+01  3.848880615E+02
1.025575991E+01  3.834681091E+02
1.027050070E+01  3.799028320E+02
1.028524149E+01  3.734053345E+02
1.029998229E+01  3.652036438E+02
1.031472308E+01  3.572763672E+02
1.032946387E+01  3.495751953E+02
1.034420466E+01  3.413945923E+02
1.035894545E+01  3.339223633E+02
1.037368625E+01  3.280880127E+02
1.038842704E+01  3.234837952E+02
1.040316783E+01  3.240083618E+02
1.041790862E+01  3.271167603E+02
1.043264941E+01  3.276499634E+02
1.044739021E+01  3.262084961E+02
1.046213100E+01  3.214299316E+02
1.047687179E+01  3.179590454E+02
1.049161258E+01  3.150567627E+02
1.050635337E+01  3.119334717E+02
1.052109417E+01  3.085520020E+02
1.053583496E+01  3.064243164E+02
1.055057575E+01  3.042779846E+02
1.056531654E+01  3.024778748E+02
1.058005734E+01  3.007771301E+02
1.059479813E+01  2.993066406E+02
1.060953892E+01  2.995270386E+02
1.062427971E+01  2.983086853E+02
1.063902050E+01  2.977351379E+02
1.065376130E+01  2.966601562E+02
1.066850209E+01  2.953544312E+02
1.068324288E+01  2.943683777E+02
1.069798367E+01  2.930801697E+02
1.071272446E+01  2.926547546E+02
1.072746526E+01  2.926338806E+02
1.074220605E+01  2.924336243E+02
1.075694684E+01  2.917603455E+02
1.077168763E+01  2.914636536E+02
1.078642843E+01  2.909945679E+02
1.080116922E+01  2.906011658E+02
1.081591001E+01  2.893716125E+02
1.083065080E+01  2.889370728E+02
1.084539159E+01  2.882330322E+02
1.086013239E+01  2.881313171E+02
1.087487318E+01  2.878291931E+02
1.088961397E+01  2.879703064E+02
1.090435476E+01  2.888112793E+02
1.091909555E+01  2.883220520E+02
1.093383635E+01  2.876595154E+02
1.094857714E+01  2.879199829E+02
1.096331793E+01  2.886202087E+02
1.097805872E+01  2.889027710E+02
1.099279951E+01  2.885260925E+02
1.100754031E+01  2.887554016E+02
1.102228110E+01  2.886898193E+02
1.103702189E+01  2.882811279E+02
1.105176268E+01  2.882378540E+02
1.106650348E+01  2.886853638E+02
1.108124427E+01  2.893647461E+02
1.109598506E+01  2.894923401E+02
1.111072585E+01  2.902096558E+02
1.112546664E+01  2.906516724E+02
1.114020744E+01  2.913746948E+02
1.115494823E+01  2.913963623E+02
1.116968902E+01  2.917216797E+02
1.118442981E+01  2.916796265E+02
1.119917060E+01  2.910590515E+02
1.121391140E+01  2.912869263E+02
1.122865219E+01  2.922348633E+02
1.124339298E+01  2.928068237E+02
1.125813377E+01  2.930748901E+02
1.127287456E+01  2.931789856E+02
1.128761536E+01  2.944655151E+02
1.130235615E+01  2.955711365E+02
1.131709694E+01  2.968437500E+02
1.133183773E+01  2.964715271E+02
1.134657853E+01  2.970486145E+02
1.136131932E+01  2.977568359E+02
1.137606011E+01  2.993699646E+02
1.139080090E+01  2.991489258E+02
1.140554169E+01  2.989323730E+02
1.142028249E+01  2.980906372E+02
1.143502328E+01  2.977619934E+02
1.144976407E+01  2.976724243E+02
1.146450486E+01  2.985533142E+02
1.147924565E+01  2.993567505E+02
1.149398645E+01  2.993583374E+02
1.150872724E+01  2.995049133E+02
1.152346803E+01  2.997569885E+02
1.153820882E+01  3.009829102E+02
1.155294961E+01  3.039091492E+02
1.156769041E+01  3.070167236E+02
1.158243120E+01  3.102037659E+02
1.159717199E+01  3.137971802E+02
1.161191278E+01  3.194974060E+02
1.162665358E+01  3.263802185E+02
1.164139437E+01  3.349899902E+02
1.165613516E+01  3.446790771E+02
1.167087595E+01  3.549028015E+02
1.168561674E+01  3.640888062E+02
1.170035754E+01  3.737496643E+02
1.171509833E+01  3.808883972E+02
1.172983912E+01  3.841609802E+02
1.174457991E+01  3.858635864E+02
1.175932070E+01  3.812467651E+02
1.177406150E+01  3.704480591E+02
1.178880229E+01  3.566409607E+02
1.180354308E+01  3.415990295E+02
1.181828387E+01  3.270633545E+02
1.183302467E+01  3.165801697E+02
1.184776546E+01  3.083436279E+02
1.186250625E+01  3.036982727E+02
1.187724704E+01  3.003399658E+02
1.189198783E+01  2.979266357E+02
1.190672863E+01  2.963056030E+02
1.192146942E+01  2.946368408E+02
1.193621021E+01  2.931574402E+02
1.195095100E+01  2.926685486E+02
1.196569179E+01  2.924693909E+02
1.198043259E+01  2.926014404E+02
1.199517338E+01  2.925347595E+02
1.200991417E+01  2.924889526E+02
1.202465496E+01  2.930935364E+02
1.203939575E+01  2.940096130E+02
1.205413655E+01  2.943374939E+02
1.206887734E+01  2.933350830E+02
1.208361813E+01  2.926008911E+02
1.209835892E+01  2.923541565E+02
1.211309972E+01  2.925963135E+02
1.212784051E+01  2.932308350E+02
1.214258130E+01  2.938554993E+02
1.215732209E+01  2.947950134E+02
1.217206288E+01  2.942983704E+02
1.218680368E+01  2.937999878E+02
1.220154447E+01  2.930437012E+02
1.221628526E+01  2.937084961E+02
1.223102605E+01  2.946693726E+02
1.224576684E+01  2.947594299E+02
1.226050764E+01  2.940917969E+02
1.227524843E+01  2.942352295E+02
1.228998922E+01  2.954759827E+02
1.230473001E+01  2.955201111E+02
1.231947080E+01  2.945385742E+02
1.233421160E+01  2.935290527E+02
1.234895239E+01  2.937435608E+02
1.236369318E+01  2.948626709E+02
1.237843397E+01  2.956228333E+02
1.239317477E+01  2.963803101E+02
1.240791556E+01  2.971015015E+02
1.242265635E+01  2.982708740E+02
1.243739714E+01  2.991731262E+02
1.245213793E+01  2.993428040E+02
1.246687873E+01  2.994538269E+02
1.248161952E+01  2.998923035E+02
1.249636031E+01  3.012520142E+02
1.251110110E+01  3.020749817E+02
1.252584189E+01  3.026942749E+02
1.254058269E+01  3.024986267E+02
1.255532348E+01  3.022572327E+02
1.257006427E+01  3.025433044E+02
1.258480506E+01  3.031560974E+02
1.259954585E+01  3.036990662E+02
1.261428665E+01  3.041560059E+02
1.262902744E+01  3.044702759E+02
1.264376823E+01  3.055734253E+02
1.265850902E+01  3.062234497E+02
1.267324982E+01  3.071314087E+02
1.268799061E+01  3.071936035E+02
1.270273140E+01  3.070149231E+02
1.271747219E+01  3.068323975E+02
1.273221298E+01  3.078549500E+02
1.274695378E+01  3.088565063E+02
1.276169457E+01  3.105566101E+02
1.277643536E+01  3.110141296E+02
1.279117615E+01  3.121689453E+02
1.280591694E+01  3.128584900E+02
1.282065774E+01  3.137576294E+02
1.283539853E+01  3.145740051E+02
1.285013932E+01  3.152736206E+02
1.286488011E+01  3.153747559E+02
1.287962091E+01  3.142777710E+02
1.289436170E+01  3.114851379E+02
1.290910249E+01  3.098317566E+02
1.292384328E+01  3.096522522E+02
1.293858407E+01  3.096924438E+02
1.295332487E+01  3.093736572E+02
1.296806566E+01  3.095223694E+02
1.298280645E+01  3.100949097E+02
1.299754724E+01  3.110269470E+02
1.301228803E+01  3.116089783E+02
1.302702883E+01  3.119183044E+02
1.304176962E+01  3.126210632E+02
1.305651041E+01  3.135207825E+02
1.307125120E+01  3.145711670E+02
1.308599199E+01  3.158095093E+02
1.310073279E+01  3.174926147E+02
1.311547358E+01  3.193556519E+02
1.313021437E+01  3.222797546E+02
1.314495516E+01  3.264119873E+02
1.315969596E+01  3.311780090E+02
1.317443675E+01  3.370180664E+02
1.318917754E+01  3.431576538E+02
1.320391833E+01  3.515796814E+02
1.321865912E+01  3.618420715E+02
1.323339992E+01  3.737869568E+02
1.324814071E+01  3.885667114E+02
1.326288150E+01  4.054632874E+02
1.327762229E+01  4.261226501E+02
1.329236308E+01  4.439338074E+02
1.330710388E+01  4.584885254E+02
1.332184467E+01  4.633958740E+02
1.333658546E+01  4.572140808E+02
1.335132625E+01  4.405502014E+02
1.336606704E+01  4.203346252E+02
1.338080784E+01  3.973825684E+02
1.339554863E+01  3.784067383E+02
1.341028942E+01  3.619531250E+02
1.342503021E+01  3.497773438E+02
1.343977101E+01  3.411857605E+02
1.345451180E+01  3.345009155E+02
1.346925259E+01  3.305678711E+02
1.348399338E+01  3.264582825E+02
1.349873417E+01  3.231299744E+02
1.351347497E+01  3.213957520E+02
1.352821576E+01  3.204866333E+02
1.354295655E+01  3.208759460E+02
1.355769734E+01  3.214862976E+02
1.357243813E+01  3.225868530E+02
1.358717893E+01  3.241060181E+02
1.360191972E+01  3.248948975E+02
1.361666051E+01  3.252193909E+02
1.363140130E+01  3.250700073E+02
1.364614209E+01  3.254541016E+02
1.366088289E+01  3.267053528E+02
1.367562368E+01  3.286192322E+02
1.369036447E+01  3.305707703E+02
1.370510526E+01  3.325713196E+02
1.371984606E+01  3.341293945E+02
1.373458685E+01  3.368177185E+02
1.374932764E+01  3.412203369E+02
1.376406843E+01  3.468321838E+02
1.377880922E+01  3.552505188E+02
1.379355002E+01  3.571104736E+02
1.380829081E+01  3.582351074E+02
1.382303160E+01  3.580739136E+02
1.383777239E+01  3.564549255E+02
1.385251318E+01  3.540738831E+02
1.386725398E+01  3.520322876E+02
1.388199477E+01  3.493077393E+02
1.389673556E+01  3.461889648E+02
1.391147635E+01  3.431083069E+02
1.392621715E+01  3.409530334E+02
1.394095794E+01  3.394181824E+02
1.395569873E+01  3.375559082E+02
1.397043952E+01  3.354942932E+02
1.398518031E+01  3.338506165E+02
1.399992111E+01  3.331464233E+02
1.401466190E+01  3.317695618E+02
1.402940269E+01  3.307646179E+02
1.404414348E+01  3.299220886E+02
1.405888427E+01  3.299677734E+02
1.407362507E+01  3.292657471E+02
1.408836586E+01  3.293202820E+02
1.410310665E+01  3.290350647E+02
1.411784744E+01  3.295890503E+02
1.413258823E+01  3.298871460E+02
1.414732903E+01  3.301275635E+02
1.416206982E+01  3.301314697E+02
1.417681061E+01  3.298631897E+02
1.419155140E+01  3.304787292E+02
1.420629220E+01  3.319642944E+02
1.422103299E+01  3.336483459E+02
1.423577378E+01  3.352101440E+02
1.425051457E+01  3.360588074E+02
1.426525536E+01  3.366679688E+02
1.427999616E+01  3.363885193E+02
1.429473695E+01  3.372624817E+02
1.430947774E+01  3.388018799E+02
1.432421853E+01  3.417240906E+02
1.433895932E+01  3.446692200E+02
1.435370012E+01  3.472348022E+02
1.436844091E+01  3.518134460E+02
1.438318170E+01  3.591658936E+02
1.439792249E+01  3.694624634E+02
1.441266328E+01  3.819972839E+02
1.442740408E+01  3.933793335E+02
1.444214487E+01  4.070012512E+02
1.445688566E+01  4.169310608E+02
1.447162645E+01  4.245779419E+02
1.448636725E+01  4.288841553E+02
1.450110804E+01  4.292566223E+02
1.451584883E+01  4.247109375E+02
1.453058962E+01  4.164546509E+02
1.454533041E+01  4.066183472E+02
1.456007121E+01  3.959501648E+02
1.457481200E+01  3.883471375E+02
1.458955279E+01  3.825243530E+02
1.460429358E+01  3.783036499E+02
1.461903437E+01  3.734660034E+02
1.463377517E+01  3.713509521E+02
1.464851596E+01  3.691114807E+02
1.466325675E+01  3.679409790E+02
1.467799754E+01  3.661218262E+02
1.469273833E+01  3.652663574E+02
1.470747913E+01  3.638747253E+02
1.472221992E+01  3.618412476E+02
1.473696071E+01  3.594595947E+02
1.475170150E+01  3.576022034E+02
1.476644230E+01  3.553919983E+02
1.478118309E+01  3.529997253E+02
1.479592388E+01  3.497944641E+02
1.481066467E+01  3.476673889E+02
1.482540546E+01  3.450822754E+02
1.484014626E+01  3.428126526E+02
1.485488705E+01  3.414783936E+02
1.486962784E+01  3.404195251E+02
1.488436863E+01  3.401957397E+02
1.489910942E+01  3.398751831E+02
1.491385022E+01  3.403029175E+02
1.492859101E+01  3.421691284E+02
1.494333180E+01  3.433119507E+02
1.495807259E+01  3.464061279E+02
1.497281339E+01  3.497991333E+02
1.498755418E+01  3.526405029E+02
1.500229497E+01  3.560893555E+02
1.501703576E+01  3.576966553E+02
1.503177655E+01  3.597897339E+02
1.504651735E+01  3.592452698E+02
1.506125814E+01  3.572410278E+02
1.507599893E+01  3.547182922E+02
1.509073972E+01  3.526421509E+02
1.510548051E+01  3.485777893E+02
1.512022131E+01  3.458430176E+02
1.513496210E+01  3.418475342E+02
1.514970289E+01  3.393285522E+02
1.516444368E+01  3.368628235E+02
1.517918447E+01  3.346067810E+02
1.519392527E+01  3.331151733E+02
1.520866606E+01  3.323807068E+02
1.522340685E+01  3.319985962E+02
1.523814764E+01  3.321341858E+02
1.525288844E+01  3.319719543E+02
1.526762923E+01  3.309868164E+02
1.528237002E+01  3.298193054E+02
1.529711081E+01  3.300259399E+02
1.531185160E+01  3.308396912E+02
1.532659240E+01  3.316032715E+02
1.534133319E+01  3.321791687E+02
1.535607398E+01  3.318869019E+02
1.537081477E+01  3.316020813E+02
1.538555556E+01  3.316740723E+02
1.540029636E+01  3.320042725E+02
1.541503715E+01  3.315217590E+02
1.542977794E+01  3.313815002E+02
1.544451873E+01  3.314729919E+02
1.545925952E+01  3.316322021E+02
1.547400032E+01  3.318183289E+02
1.548874111E+01  3.324498291E+02
1.550348190E+01  3.324931946E+02
1.551822269E+01  3.323366394E+02
1.553296349E+01  3.324583435E+02
1.554770428E+01  3.317614746E+02
1.556244507E+01  3.315415955E+02
1.557718586E+01  3.317062683E+02
1.559192665E+01  3.330396118E+02
1.560666745E+01  3.335941467E+02
1.562140824E+01  3.336862793E+02
1.563614903E+01  3.339418945E+02
1.565088982E+01  3.341826782E+02
1.566563061E+01  3.339198914E+02
1.568037141E+01  3.339612427E+02
1.569511220E+01  3.335966187E+02
1.570985299E+01  3.331995239E+02
1.572459378E+01  3.324616699E+02
1.573933457E+01  3.322219849E+02
1.575407537E+01  3.320761108E+02
1.576881616E+01  3.315036621E+02
1.578355695E+01  3.312473450E+02
1.579829774E+01  3.304228210E+02
1.581303854E+01  3.293433838E+02
1.582777933E+01  3.285898743E+02
1.584252012E+01  3.281860352E+02
1.585726091E+01  3.282346497E+02
1.587200170E+01  3.275128784E+02
1.588674250E+01  3.276921997E+02
1.590148329E+01  3.284187012E+02
1.591622408E+01  3.286916504E+02
1.593096487E+01  3.281800537E+02
1.594570566E+01  3.278322449E+02
1.596044646E+01  3.276121826E+02
1.597518725E+01  3.275179749E+02
1.598992804E+01  3.280260620E+02
1.600466883E+01  3.286685791E+02
1.601940963E+01  3.290256653E+02
1.603415042E+01  3.290944214E+02
1.604889121E+01  3.292306213E+02
1.606363200E+01  3.295713196E+02
1.607837279E+01  3.294212341E+02
1.609311359E+01  3.286206055E+02
1.610785438E+01  3.289550476E+02
1.612259517E+01  3.298895264E+02
1.613733596E+01  3.300530090E+02
1.615207675E+01  3.291962280E+02
1.616681755E+01  3.290424805E+02
1.618155834E+01  3.290085144E+02
1.619629913E+01  3.296729431E+02
1.621103992E+01  3.304602051E+02
1.622578071E+01  3.315995178E+02
1.624052151E+01  3.320552673E+02
1.625526230E+01  3.323381653E+02
1.627000309E+01  3.335720825E+02
1.628474388E+01  3.345997925E+02
1.629948468E+01  3.351745605E+02
1.631422547E+01  3.358511658E+02
1.632896626E+01  3.368435669E+02
1.634370705E+01  3.379133301E+02
1.635844784E+01  3.386082153E+02
1.637318864E+01  3.386293030E+02
1.638792943E+01  3.384642029E+02
1.640267022E+01  3.380610046E+02
1.641741101E+01  3.377540588E+02
1.643215180E+01  3.381334839E+02
1.644689260E+01  3.380316467E+02
1.646163339E+01  3.376267700E+02
1.647637418E+01  3.368742676E+02
1.649111497E+01  3.368338623E+02
1.650585576E+01  3.363228149E+02
1.652059656E+01  3.366213684E+02
1.653533735E+01  3.367434082E+02
1.655007814E+01  3.375524597E+02
1.656481893E+01  3.365752869E+02
1.657955973E+01  3.357305603E+02
1.659430052E+01  3.355588379E+02
1.660904131E+01  3.358770142E+02
1.662378210E+01  3.373585815E+02
1.663852289E+01  3.383387756E+02
1.665326369E+01  3.388852844E+02
1.666800448E+01  3.400583191E+02
1.668274527E+01  3.409225769E+02
1.669748606E+01  3.422062073E+02
1.671222685E+01  3.436885376E+02
1.672696765E+01  3.449248352E+02
1.674170844E+01  3.465747681E+02
1.675644923E+01  3.486734009E+02
1.677119002E+01  3.507437134E+02
1.678593081E+01  3.528004150E+02
1.680067161E+01  3.552104797E+02
1.681541240E+01  3.573038940E+02
1.683015319E+01  3.583060608E+02
1.684489398E+01  3.585979004E+02
1.685963478E+01  3.575647888E+02
1.687437557E+01  3.547031555E+02
1.688911636E+01  3.513118286E+02
1.690385715E+01  3.469409180E+02
1.691859794E+01  3.436880188E+02
1.693333874E+01  3.414093018E+02
1.694807953E+01  3.403034058E+02
1.696282032E+01  3.389341125E+02
1.697756111E+01  3.379577942E+02
1.699230190E+01  3.368772278E+02
1.700704270E+01  3.367004395E+02
1.702178349E+01  3.365050354E+02
1.703652428E+01  3.364181213E+02
1.705126507E+01  3.355375977E+02
1.706600587E+01  3.353096313E+02
1.708074666E+01  3.349654541E+02
1.709548745E+01  3.347175293E+02
1.711022824E+01  3.350614319E+02
1.712496903E+01  3.360611877E+02
1.713970983E+01  3.359441223E+02
1.715445062E+01  3.359169922E+02
1.716919141E+01  3.356021729E+02
1.718393220E+01  3.366479187E+02
1.719867299E+01  3.373256531E+02
1.721341379E+01  3.385212402E+02
1.722815458E+01  3.375210571E+02
1.724289537E+01  3.381808472E+02
1.725763616E+01  3.381627197E+02
1.727237695E+01  3.383564148E+02
1.728711775E+01  3.387921143E+02
1.730185854E+01  3.377749634E+02
1.731659933E+01  3.366730957E+02
1.733134012E+01  3.358625183E+02
1.734608092E+01  3.359018555E+02
1.736082171E+01  3.362220764E+02
1.737556250E+01  3.358728638E+02
1.739030329E+01  3.356936035E+02
1.740504408E+01  3.356639099E+02
1.741978488E+01  3.359125366E+02
1.743452567E+01  3.363494263E+02
1.744926646E+01  3.376814880E+02
1.746400725E+01  3.378804626E+02
1.747874804E+01  3.378436279E+02
1.749348884E+01  3.377870789E+02
1.750822963E+01  3.385190430E+02
1.752297042E+01  3.396517944E+02
1.753771121E+01  3.409852600E+02
1.755245200E+01  3.414791260E+02
1.756719280E+01  3.414360657E+02
1.758193359E+01  3.414085083E+02
1.759667438E+01  3.421993408E+02
1.761141517E+01  3.429541016E+02
1.762615597E+01  3.442234802E+02
1.764089676E+01  3.456405945E+02
1.765563755E+01  3.477350464E+02
1.767037834E+01  3.494948425E+02
1.768511913E+01  3.508873901E+02
1.769985993E+01  3.531144104E+02
1.771460072E+01  3.561032104E+02
1.772934151E+01  3.591026306E+02
1.774408230E+01  3.609375305E+02
1.775882309E+01  3.617759094E+02
1.777356389E+01  3.615784302E+02
1.778830468E+01  3.600703735E+02
1.780304547E+01  3.592568054E+02
1.781778626E+01  3.586264954E+02
1.783252705E+01  3.587406616E+02
1.784726785E+01  3.586944275E+02
1.786200864E+01  3.579979248E+02
1.787674943E+01  3.567391052E+02
1.789149022E+01  3.540198975E+02
1.790623102E+01  3.519407959E+02
1.792097181E+01  3.503732605E+02
1.793571260E+01  3.493998108E+02
1.795045339E+01  3.471919556E+02
1.796519418E+01  3.447176514E+02
1.797993498E+01  3.438707886E+02
1.799467577E+01  3.439814453E+02
1.800941656E+01  3.431521912E+02
1.802415735E+01  3.420930786E+02
1.803889814E+01  3.404175110E+02
1.805363894E+01  3.403444824E+02
1.806837973E+01  3.401349487E+02
1.808312052E+01  3.398429260E+02
1.809786131E+01  3.392384644E+02
1.811260211E+01  3.388448792E+02
1.812734290E+01  3.395359192E+02
1.814208369E+01  3.401776123E+02
1.815682448E+01  3.400352173E+02
1.817156527E+01  3.401465454E+02
1.818630607E+01  3.397415771E+02
1.820104686E+01  3.403056335E+02
1.821578765E+01  3.411712036E+02
1.823052844E+01  3.416184692E+02
1.824526923E+01  3.421530457E+02
1.826001003E+01  3.420260315E+02
1.827475082E+01  3.416583557E+02
1.828949161E+01  3.411100464E+02
1.830423240E+01  3.409709778E+02
1.831897319E+01  3.419055786E+02
1.833371399E+01  3.430239868E+02
1.834845478E+01  3.435414124E+02
1.836319557E+01  3.432489014E+02
1.837793636E+01  3.433584595E+02
1.839267716E+01  3.442048340E+02
1.840741795E+01  3.448575134E+02
1.842215874E+01  3.453494568E+02
1.843689953E+01  3.454353027E+02
1.845164032E+01  3.449297485E+02
1.846638112E+01  3.442911987E+02
1.848112191E+01  3.437644653E+02
1.849586270E+01  3.434750061E+02
1.851060349E+01  3.423242493E+02
1.852534428E+01  3.411354980E+02
1.854008508E+01  3.399727173E+02
1.855482587E+01  3.386848450E+02
1.856956666E+01  3.378490295E+02
1.858430745E+01  3.365441895E+02
1.859904824E+01  3.359630432E+02
1.861378904E+01  3.350434875E+02
1.862852983E+01  3.345240173E+02
1.864327062E+01  3.346907959E+02
1.865801141E+01  3.344912109E+02
1.867275221E+01  3.338592529E+02
1.868749300E+01  3.335847778E+02
1.870223379E+01  3.342913818E+02
1.871697458E+01  3.345743408E+02
1.873171537E+01  3.345956421E+02
1.874645617E+01  3.340626526E+02
1.876119696E+01  3.327955933E+02
1.877593775E+01  3.319413147E+02
1.879067854E+01  3.322251892E+02
1.880541933E+01  3.320368652E+02
1.882016013E+01  3.322770996E+02
1.883490092E+01  3.321718445E+02
1.884964171E+01  3.329796143E+02
1.886438250E+01  3.326148987E+02
1.887912329E+01  3.317989197E+02
1.889386409E+01  3.317520752E+02
1.890860488E+01  3.326840820E+02
1.892334567E+01  3.334516296E+02
1.893808646E+01  3.324820862E+02
1.895282726E+01  3.324263611E+02
1.896756805E+01  3.328580017E+02
1.898230884E+01  3.328882141E+02
1.899704963E+01  3.328676453E+02
1.901179042E+01  3.332346802E+02
1.902653122E+01  3.328635559E+02
1.904127201E+01  3.319540710E+02
1.905601280E+01  3.317749634E+02
1.907075359E+01  3.319405823E+02
1.908549438E+01  3.321506042E+02
1.910023518E+01  3.319846191E+02
1.911497597E+01  3.320086975E+02
1.912971676E+01  3.329170532E+02
1.914445755E+01  3.324800415E+02
1.915919834E+01  3.321662903E+02
1.917393914E+01  3.323125000E+02
1.918867993E+01  3.326004639E+02
1.920342072E+01  3.326352844E+02
1.921816151E+01  3.327156982E+02
1.923290231E+01  3.329892883E+02
1.924764310E+01  3.326310425E+02
1.926238389E+01  3.320318909E+02
1.927712468E+01  3.319133606E+02
1.929186547E+01  3.323127747E+02
1.930660627E+01  3.326043701E+02
1.932134706E+01  3.324799500E+02
1.933608785E+01  3.312257996E+02
1.935082864E+01  3.306938782E+02
1.936556943E+01  3.309411011E+02
1.938031023E+01  3.315293579E+02
1.939505102E+01  3.314435730E+02
1.940979181E+01  3.325716858E+02
1.942453260E+01  3.333497009E+02
1.943927340E+01  3.332731934E+02
1.945401419E+01  3.329560547E+02
1.946875498E+01  3.325268555E+02
1.948349577E+01  3.324580994E+02
1.949823656E+01  3.324572754E+02
1.951297736E+01  3.324248657E+02
1.952771815E+01  3.327841187E+02
1.954245894E+01  3.328664246E+02
1.955719973E+01  3.324659729E+02
1.957194052E+01  3.324146423E+02
1.958668132E+01  3.323253784E+02
1.960142211E+01  3.324783936E+02
1.961616290E+01  3.318932800E+02
1.963090369E+01  3.320022278E+02
1.964564448E+01  3.315684509E+02
1.966038528E+01  3.321293640E+02
1.967512607E+01  3.327966614E+02
1.968986686E+01  3.322269897E+02
1.970460765E+01  3.323365479E+02
1.971934845E+01  3.321964417E+02
1.973408924E+01  3.327078247E+02
1.974883003E+01  3.331270142E+02
1.976357082E+01  3.337367554E+02
1.977831161E+01  3.336282654E+02
1.979305241E+01  3.333211365E+02
1.980779320E+01  3.331865234E+02
1.982253399E+01  3.335006409E+02
1.983727478E+01  3.339901428E+02
1.985201557E+01  3.345607605E+02
1.986675637E+01  3.358894348E+02
1.988149716E+01  3.368734131E+02
1.989623795E+01  3.374413147E+02
1.991097874E+01  3.370592957E+02
1.992571953E+01  3.374449158E+02
1.994046033E+01  3.381314392E+02
1.995520112E+01  3.387970886E+02
1.996994191E+01  3.392423401E+02
1.998468270E+01  3.391650085E+02
1.999942350E+01  3.386658020E+02
2.001416429E+01  3.380394897E+02
2.002890508E+01  3.390067139E+02
2.004364587E+01  3.395343933E+02
2.005838666E+01  3.399109497E+02
2.007312746E+01  3.392760925E+02
2.008786825E+01  3.402332153E+02
2.010260904E+01  3.417105408E+02
2.011734983E+01  3.433889771E+02
2.013209062E+01  3.441000366E+02
2.014683142E+01  3.450301819E+02
2.016157221E+01  3.470978088E+02
2.017631300E+01  3.502000732E+02
2.019105379E+01  3.531775513E+02
2.020579458E+01  3.565129700E+02
2.022053538E+01  3.600012817E+02
2.023527617E+01  3.646295471E+02
2.025001696E+01  3.694399414E+02
2.026475775E+01  3.735963745E+02
2.027949855E+01  3.765200500E+02
2.029423934E+01  3.815030823E+02
2.030898013E+01  3.866835938E+02
2.032372092E+01  3.898837585E+02
2.033846171E+01  3.905634766E+02
2.035320251E+01  3.903812256E+02
2.036794330E+01  3.887059021E+02
2.038268409E+01  3.846697998E+02
2.039742488E+01  3.795726624E+02
2.041216567E+01  3.736169434E+02
2.042690647E+01  3.679730225E+02
2.044164726E+01  3.623605957E+02
2.045638805E+01  3.576442261E+02
2.047112884E+01  3.535227051E+02
2.048586964E+01  3.499491577E+02
2.050061043E+01  3.473493652E+02
2.051535122E+01  3.460289612E+02
2.053009201E+01  3.435237732E+02
2.054483280E+01  3.418479004E+02
2.055957360E+01  3.398480225E+02
2.057431439E+01  3.393883667E+02
2.058905518E+01  3.378968201E+02
2.060379597E+01  3.375872498E+02
2.061853676E+01  3.373129578E+02
2.063327756E+01  3.378745117E+02
2.064801835E+01  3.377578735E+02
2.066275914E+01  3.376923218E+02
2.067749993E+01  3.374435425E+02
2.069224072E+01  3.361391907E+02
2.070698152E+01  3.355820312E+02
2.072172231E+01  3.343962097E+02
2.073646310E+01  3.341448669E+02
2.075120389E+01  3.333884277E+02
2.076594469E+01  3.341116333E+02
2.078068548E+01  3.338539429E+02
2.079542627E+01  3.340704041E+02
2.081016706E+01  3.340622253E+02
2.082490785E+01  3.339627380E+02
2.083964865E+01  3.330440063E+02
2.085438944E+01  3.324968262E+02
2.086913023E+01  3.319243469E+02
2.088387102E+01  3.322238159E+02
2.089861181E+01  3.315669861E+02
2.091335261E+01  3.309504395E+02
2.092809340E+01  3.315209351E+02
2.094283419E+01  3.325386353E+02
2.095757498E+01  3.331338806E+02
2.097231577E+01  3.321595764E+02
2.098705657E+01  3.322953491E+02
2.100179736E+01  3.325117188E+02
2.101653815E+01  3.323071289E+02
2.103127894E+01  3.320365601E+02
2.104601974E+01  3.317908936E+02
2.106076053E+01  3.318444824E+02
2.107550132E+01  3.313215332E+02
2.109024211E+01  3.320236206E+02
2.110498290E+01  3.324079285E+02
2.111972370E+01  3.320375366E+02
2.113446449E+01  3.320982666E+02
2.114920528E+01  3.324728088E+02
2.116394607E+01  3.338910217E+02
2.117868686E+01  3.351406860E+02
2.119342766E+01  3.354956970E+02
2.120816845E+01  3.347413635E+02
2.122290924E+01  3.344066467E+02
2.123765003E+01  3.347257690E+02
2.125239082E+01  3.348216553E+02
2.126713162E+01  3.355785522E+02
2.128187241E+01  3.363417969E+02
2.129661320E+01  3.361790466E+02
2.131135399E+01  3.358617554E+02
2.132609479E+01  3.357975464E+02
2.134083558E+01  3.351607666E+02
2.135557637E+01  3.351073608E+02
2.137031716E+01  3.358670654E+02
2.138505795E+01  3.371163940E+02
2.139979875E+01  3.367093506E+02
2.141453954E+01  3.361085510E+02
2.142928033E+01  3.362553406E+02
2.144402112E+01  3.367538147E+02
2.145876191E+01  3.368774719E+02
2.147350271E+01  3.370175781E+02
2.148824350E+01  3.370317993E+02
2.150298429E+01  3.371656799E+02
2.151772508E+01  3.371073303E+02
2.153246588E+01  3.359903259E+02
2.154720667E+01  3.348146973E+02
2.156194746E+01  3.346663208E+02
2.157668825E+01  3.344235229E+02
2.159142904E+01  3.347485352E+02
2.160616984E+01  3.343014526E+02
2.162091063E+01  3.341792908E+02
2.163565142E+01  3.338835754E+02
2.165039221E+01  3.336611328E+02
2.166513300E+01  3.328081970E+02
2.167987380E+01  3.327935791E+02
2.169461459E+01  3.333494263E+02
2.170935538E+01  3.337257996E+02
2.172409617E+01  3.345185852E+02
2.173883696E+01  3.345272217E+02
2.175357776E+01  3.347057190E+02
2.176831855E+01  3.352609558E+02
2.178305934E+01  3.349703674E+02
2.179780013E+01  3.349175415E+02
2.181254093E+01  3.352527161E+02
2.182728172E+01  3.354293823E+02
2.184202251E+01  3.355419617E+02
2.185676330E+01  3.352036743E+02
2.187150409E+01  3.364166565E+02
2.188624489E+01  3.371300964E+02
2.190098568E+01  3.376528320E+02
2.191572647E+01  3.386566467E+02
2.193046726E+01  3.389275208E+02
2.194520805E+01  3.389342957E+02
2.195994885E+01  3.390217590E+02
2.197468964E+01  3.395131531E+02
2.198943043E+01  3.398931274E+02
2.200417122E+01  3.406209106E+02
2.201891201E+01  3.422103577E+02
2.203365281E+01  3.427413635E+02
2.204839360E+01  3.438282166E+02
2.206313439E+01  3.448974915E+02
2.207787518E+01  3.454960632E+02
2.209261598E+01  3.460512085E+02
2.210735677E+01  3.465072937E+02
2.212209756E+01  3.483213806E+02
2.213683835E+01  3.496777039E+02
2.215157914E+01  3.519394226E+02
2.216631994E+01  3.535457764E+02
2.218106073E+01  3.573724060E+02
2.219580152E+01  3.600856018E+02
2.221054231E+01  3.621361084E+02
2.222528310E+01  3.631979065E+02
2.224002390E+01  3.650700989E+02
2.225476469E+01  3.664228210E+02
2.226950548E+01  3.664839172E+02
2.228424627E+01  3.646426086E+02
2.229898706E+01  3.635943298E+02
2.231372786E+01  3.618862000E+02
2.232846865E+01  3.600819397E+02
2.234320944E+01  3.575293579E+02
2.235795023E+01  3.551742859E+02
2.237269103E+01  3.530896301E+02
2.238743182E+01  3.507643433E+02
2.240217261E+01  3.497709351E+02
2.241691340E+01  3.486368103E+02
2.243165419E+01  3.485357056E+02
2.244639499E+01  3.496752930E+02
2.246113578E+01  3.496888733E+02
2.247587657E+01  3.495617676E+02
2.249061736E+01  3.492260742E+02
2.250535815E+01  3.497879028E+02
2.252009895E+01  3.496696777E+02
2.253483974E+01  3.492126770E+02
2.254958053E+01  3.484152222E+02
2.256432132E+01  3.477427673E+02
2.257906212E+01  3.479724731E+02
2.259380291E+01  3.489230957E+02
2.260854370E+01  3.497935486E+02
2.262328449E+01  3.496784973E+02
2.263802528E+01  3.492710266E+02
2.265276608E+01  3.483147888E+02
2.266750687E+01  3.481679077E+02
2.268224766E+01  3.488005066E+02
2.269698845E+01  3.494438477E+02
2.271172924E+01  3.497142029E+02
2.272647004E+01  3.509339600E+02
2.274121083E+01  3.531100769E+02
2.275595162E+01  3.559288330E+02
2.277069241E+01  3.567397461E+02
2.278543320E+01  3.542486877E+02
2.280017400E+01  3.522113647E+02
2.281491479E+01  3.526875916E+02
2.282965558E+01  3.570747986E+02
2.284439637E+01  3.607010803E+02
2.285913717E+01  3.643613281E+02
2.287387796E+01  3.655281677E+02
2.288861875E+01  3.680097046E+02
2.290335954E+01  3.716009827E+02
2.291810033E+01  3.767289429E+02
2.293284113E+01  3.792419128E+02
2.294758192E+01  3.818868408E+02
2.296232271E+01  3.848300476E+02
2.297706350E+01  3.871450195E+02
2.299180429E+01  3.875663757E+02
2.300654509E+01  3.866720581E+02
2.302128588E+01  3.837122192E+02
2.303602667E+01  3.799219971E+02
2.305076746E+01  3.758295898E+02
2.306550825E+01  3.727589722E+02
2.308024905E+01  3.684098206E+02
2.309498984E+01  3.680269165E+02
2.310973063E+01  3.668637695E+02
2.312447142E+01  3.649899902E+02
2.313921222E+01  3.628809814E+02
2.315395301E+01  3.621011963E+02
2.316869380E+01  3.614407043E+02
2.318343459E+01  3.598167114E+02
2.319817538E+01  3.593268127E+02
2.321291618E+01  3.587197571E+02
2.322765697E+01  3.575278625E+02
2.324239776E+01  3.574695740E+02
2.325713855E+01  3.578514404E+02
2.327187934E+01  3.566089478E+02
2.328662014E+01  3.551528931E+02
2.330136093E+01  3.550876160E+02
2.331610172E+01  3.560578308E+02
2.333084251E+01  3.566637268E+02
2.334558330E+01  3.557944641E+02
2.336032410E+01  3.556053772E+02
2.337506489E+01  3.555037231E+02
2.338980568E+01  3.562196960E+02
2.340454647E+01  3.574217529E+02
2.341928727E+01  3.576759338E+02
2.343402806E+01  3.571836853E+02
2.344876885E+01  3.581170959E+02
2.346350964E+01  3.586233215E+02
2.347825043E+01  3.589822998E+02
2.349299123E+01  3.591175842E+02
2.350773202E+01  3.602515259E+02
2.352247281E+01  3.595354004E+02
2.353721360E+01  3.600986938E+02
2.355195439E+01  3.603989563E+02
2.356669519E+01  3.601966553E+02
2.358143598E+01  3.582718201E+02
2.359617677E+01  3.570657349E+02
2.361091756E+01  3.559353638E+02
2.362565836E+01  3.539304199E+02
2.364039915E+01  3.530133057E+02
2.365513994E+01  3.523718567E+02
2.366988073E+01  3.520866089E+02
2.368462152E+01  3.518332825E+02
2.369936232E+01  3.512430725E+02
2.371410311E+01  3.503154907E+02
2.372884390E+01  3.492671814E+02
2.374358469E+01  3.482047729E+02
2.375832548E+01  3.478287048E+02
2.377306628E+01  3.478075562E+02
2.378780707E+01  3.475833435E+02
2.380254786E+01  3.480709534E+02
2.381728865E+01  3.486675720E+02
2.383202944E+01  3.488887024E+02
2.384677024E+01  3.497875671E+02
2.386151103E+01  3.510701294E+02
2.387625182E+01  3.530685425E+02
2.389099261E+01  3.539692993E+02
2.390573341E+01  3.539205322E+02
2.392047420E+01  3.540883789E+02
2.393521499E+01  3.561535645E+02
2.394995578E+01  3.583207703E+02
2.396469657E+01  3.596815186E+02
2.397943737E+01  3.599529724E+02
2.399417816E+01  3.599317017E+02
2.400891895E+01  3.605693970E+02
2.402365974E+01  3.606060181E+02
2.403840053E+01  3.604689331E+02
2.405314133E+01  3.596592407E+02
2.406788212E+01  3.580765991E+02
2.408262291E+01  3.566153259E+02
2.409736370E+01  3.555827942E+02
2.411210449E+01  3.552747192E+02
2.412684529E+01  3.537789917E+02
2.414158608E+01  3.529558716E+02
2.415632687E+01  3.535845032E+02
2.417106766E+01  3.534376221E+02
2.418580846E+01  3.528717346E+02
2.420054925E+01  3.529667969E+02
2.421529004E+01  3.547437134E+02
2.423003083E+01  3.556150818E+02
2.424477162E+01  3.563220520E+02
2.425951242E+01  3.582886047E+02
2.427425321E+01  3.612730713E+02
2.428899400E+01  3.635944519E+02
2.430373479E+01  3.655755615E+02
2.431847558E+01  3.674275208E+02
2.433321638E+01  3.696359558E+02
2.434795717E+01  3.714048157E+02
2.436269796E+01  3.725652466E+02
2.437743875E+01  3.724213867E+02
2.439217954E+01  3.721427612E+02
2.440692034E+01  3.715431824E+02
2.442166113E+01  3.701714783E+02
2.443640192E+01  3.674393005E+02
2.445114271E+01  3.640063782E+02
2.446588351E+01  3.608098450E+02
2.448062430E+01  3.588037720E+02
2.449536509E+01  3.566706543E+02
2.451010588E+01  3.545726929E+02
2.452484667E+01  3.521755371E+02
2.453958747E+01  3.501144104E+02
2.455432826E+01  3.485617371E+02
2.456906905E+01  3.472283020E+02
2.458380984E+01  3.466411133E+02
2.459855063E+01  3.469246521E+02
2.461329143E+01  3.465040894E+02
2.462803222E+01  3.457746887E+02
2.464277301E+01  3.458279114E+02
2.465751380E+01  3.453016968E+02
2.467225460E+01  3.440328674E+02
2.468699539E+01  3.432551575E+02
2.470173618E+01  3.431109009E+02
2.471647697E+01  3.439291687E+02
2.473121776E+01  3.452550659E+02
2.474595856E+01  3.464249268E+02
2.476069935E+01  3.470722046E+02
2.477544014E+01  3.469541016E+02
2.479018093E+01  3.457524719E+02
2.480492172E+01  3.436849976E+02
2.481966252E+01  3.432601624E+02
2.483440331E+01  3.439923706E+02
2.484914410E+01  3.454996948E+02
2.486388489E+01  3.469686584E+02
2.487862568E+01  3.476974487E+02
2.489336648E+01  3.477542725E+02
2.490810727E+01  3.471223755E+02
2.492284806E+01  3.473203430E+02
2.493758885E+01  3.488003235E+02
2.495232965E+01  3.509544983E+02
2.496707044E+01  3.525592651E+02
2.498181123E+01  3.528072815E+02
2.499655202E+01  3.535687561E+02
2.501129281E+01  3.552073364E+02
2.502603361E+01  3.568822021E+02
2.504077440E+01  3.585312805E+02
2.505551519E+01  3.607031250E+02
2.507025598E+01  3.631140747E+02
2.508499677E+01  3.655512390E+02
2.509973757E+01  3.679896851E+02
2.511447836E+01  3.703220825E+02
2.512921915E+01  3.729997559E+02
2.514395994E+01  3.747426758E+02
2.515870073E+01  3.771445923E+02
2.517344153E+01  3.779260559E+02
2.518818232E+01  3.786522217E+02
2.520292311E+01  3.775763550E+02
2.521766390E+01  3.767896118E+02
2.523240470E+01  3.754732971E+02
2.524714549E+01  3.735039978E+02
2.526188628E+01  3.712145996E+02
2.527662707E+01  3.697198792E+02
2.529136786E+01  3.679263916E+02
2.530610866E+01  3.673250122E+02
2.532084945E+01  3.651094360E+02
2.533559024E+01  3.625010071E+02
2.535033103E+01  3.618320007E+02
2.536507182E+01  3.611376038E+02
2.537981262E+01  3.608736267E+02
2.539455341E+01  3.603193359E+02
2.540929420E+01  3.599808044E+02
2.542403499E+01  3.608252258E+02
2.543877578E+01  3.628847046E+02
2.545351658E+01  3.636677246E+02
2.546825737E+01  3.630818787E+02
2.548299816E+01  3.623214111E+02
2.549773895E+01  3.618241272E+02
2.551247975E+01  3.607068787E+02
2.552722054E+01  3.592870483E+02
2.554196133E+01  3.574807129E+02
2.555670212E+01  3.564245911E+02
2.557144291E+01  3.548800964E+02
2.558618371E+01  3.524491882E+02
2.560092450E+01  3.517591553E+02
2.561566529E+01  3.525890503E+02
2.563040608E+01  3.521786194E+02
2.564514687E+01  3.501597900E+02
2.565988767E+01  3.497279053E+02
2.567462846E+01  3.497626648E+02
2.568936925E+01  3.490586548E+02
2.570411004E+01  3.484985657E+02
2.571885084E+01  3.486865234E+02
2.573359163E+01  3.495351868E+02
2.574833242E+01  3.505155640E+02
2.576307321E+01  3.503513489E+02
2.577781400E+01  3.492319336E+02
2.579255480E+01  3.474459534E+02
2.580729559E+01  3.466321411E+02
2.582203638E+01  3.463502197E+02
2.583677717E+01  3.453119507E+02
2.585151796E+01  3.458658752E+02
2.586625876E+01  3.455308838E+02
2.588099955E+01  3.450187378E+02
2.589574034E+01  3.444674988E+02
2.591048113E+01  3.449401855E+02
2.592522192E+01  3.453321838E+02
2.593996272E+01  3.454363403E+02
2.595470351E+01  3.446488953E+02
2.596944430E+01  3.452703247E+02
2.598418509E+01  3.457929382E+02
2.599892589E+01  3.457919617E+02
2.601366668E+01  3.444843750E+02
2.602840747E+01  3.442482300E+02
2.604314826E+01  3.447057800E+02
2.605788905E+01  3.447646790E+02
2.607262985E+01  3.442193298E+02
2.608737064E+01  3.442679749E+02
2.610211143E+01  3.438772278E+02
2.611685222E+01  3.446624756E+02
2.613159301E+01  3.459356995E+02
2.614633381E+01  3.453683167E+02
2.616107460E+01  3.447925110E+02
2.617581539E+01  3.437572937E+02
2.619055618E+01  3.439356384E+02
2.620529697E+01  3.436103821E+02
2.622003777E+01  3.439605408E+02
2.623477856E+01  3.433888245E+02
2.624951935E+01  3.438545532E+02
2.626426014E+01  3.435052795E+02
2.627900094E+01  3.427466431E+02
2.629374173E+01  3.436661072E+02
2.630848252E+01  3.445536804E+02
2.632322331E+01  3.449746399E+02
2.633796410E+01  3.450524902E+02
2.635270490E+01  3.443818970E+02
2.636744569E+01  3.432388000E+02
2.638218648E+01  3.442602844E+02
2.639692727E+01  3.449470825E+02
2.641166806E+01  3.447892151E+02
2.642640886E+01  3.440788574E+02
2.644114965E+01  3.456069946E+02
2.645589044E+01  3.464142456E+02
2.647063123E+01  3.456451721E+02
2.648537202E+01  3.457595825E+02
2.650011282E+01  3.466647949E+02
2.651485361E+01  3.471285400E+02
2.652959440E+01  3.473950195E+02
2.654433519E+01  3.477806702E+02
2.655907599E+01  3.492532654E+02
2.657381678E+01  3.501218262E+02
2.658855757E+01  3.501018066E+02
2.660329836E+01  3.495486755E+02
2.661803915E+01  3.482579956E+02
2.663277995E+01  3.456106873E+02
2.664752074E+01  3.420360107E+02
2.666226153E+01  3.418458557E+02
2.667700232E+01  3.433132629E+02
2.669174311E+01  3.441958008E+02
2.670648391E+01  3.431950073E+02
2.672122470E+01  3.420888367E+02
2.673596549E+01  3.424479675E+02
2.675070628E+01  3.416949463E+02
2.676544707E+01  3.413937988E+02
2.678018787E+01  3.422868652E+02
2.679492866E+01  3.422502441E+02
2.680966945E+01  3.416748657E+02
2.682441024E+01  3.423775635E+02
2.683915104E+01  3.429155579E+02
2.685389183E+01  3.417224731E+02
2.686863262E+01  3.409171143E+02
2.688337341E+01  3.404469299E+02
2.689811420E+01  3.392306519E+02
2.691285500E+01  3.408554077E+02
2.692759579E+01  3.408881836E+02
2.694233658E+01  3.401740417E+02
2.695707737E+01  3.406098938E+02
2.697181816E+01  3.409466553E+02
2.698655896E+01  3.399979248E+02
2.700129975E+01  3.414846802E+02
2.701604054E+01  3.455979919E+02
2.703078133E+01  3.490819397E+02
2.704552213E+01  3.494602966E+02
2.706026292E+01  3.475904236E+02
2.707500371E+01  3.468157043E+02
2.708974450E+01  3.467582092E+02
2.710448529E+01  3.465117188E+02
2.711922609E+01  3.449613342E+02
2.713396688E+01  3.446907043E+02
2.714870767E+01  3.446587830E+02
2.716344846E+01  3.452492676E+02
2.717818925E+01  3.448647461E+02
2.719293005E+01  3.437631531E+02
2.720767084E+01  3.432905273E+02
2.722241163E+01  3.427320251E+02
2.723715242E+01  3.424889832E+02
2.725189321E+01  3.428292236E+02
2.726663401E+01  3.432760315E+02
2.728137480E+01  3.416860352E+02
2.729611559E+01  3.406335754E+02
2.731085638E+01  3.402611694E+02
2.732559718E+01  3.397626343E+02
2.734033797E+01  3.397405396E+02
2.735507876E+01  3.398917236E+02
2.736981955E+01  3.399070740E+02
2.738456034E+01  3.393070679E+02
2.739930114E+01  3.395996094E+02
2.741404193E+01  3.394185791E+02
2.742878272E+01  3.395459290E+02
2.744352351E+01  3.391676941E+02
2.745826430E+01  3.392256470E+02
2.747300510E+01  3.387337341E+02
2.748774589E+01  3.374180298E+02
2.750248668E+01  3.369964600E+02
2.751722747E+01  3.367428589E+02
2.753196826E+01  3.360897827E+02
2.754670906E+01  3.355781250E+02
2.756144985E+01  3.361908875E+02
2.757619064E+01  3.367541809E+02
2.759093143E+01  3.361878357E+02
2.760567223E+01  3.358378601E+02
2.762041302E+01  3.358977051E+02
2.763515381E+01  3.361163635E+02
2.764989460E+01  3.362330322E+02
2.766463539E+01  3.377776184E+02
2.767937619E+01  3.378874512E+02
2.769411698E+01  3.371797180E+02
2.770885777E+01  3.360245667E+02
2.772359856E+01  3.351943665E+02
2.773833935E+01  3.348783875E+02
2.775308015E+01  3.361544800E+02
2.776782094E+01  3.373099060E+02
2.778256173E+01  3.389689941E+02
2.779730252E+01  3.401725464E+02
2.781204331E+01  3.386624146E+02
2.782678411E+01  3.374700317E+02
2.784152490E+01  3.384521484E+02
2.785626569E+01  3.392975159E+02
2.787100648E+01  3.385939636E+02
2.788574728E+01  3.377443542E+02
2.790048807E+01  3.380860596E+02
2.791522886E+01  3.378717957E+02
2.792996965E+01  3.372259827E+02
2.794471044E+01  3.383768005E+02
2.795945124E+01  3.385116882E+02
2.797419203E+01  3.380737305E+02
2.798893282E+01  3.368466187E+02
2.800367361E+01  3.365013123E+02
2.801841440E+01  3.361659241E+02
2.803315520E+01  3.372755127E+02
2.804789599E+01  3.367781067E+02
2.806263678E+01  3.351470337E+02
2.807737757E+01  3.352684021E+02
2.809211837E+01  3.358681030E+02
2.810685916E+01  3.341462708E+02
2.812159995E+01  3.330263672E+02
2.813634074E+01  3.338334656E+02
2.815108153E+01  3.339431152E+02
2.816582233E+01  3.321460876E+02
2.818056312E+01  3.307672119E+02
2.819530391E+01  3.301799622E+02
2.821004470E+01  3.302786255E+02
2.822478549E+01  3.305483398E+02
2.823952629E+01  3.308681335E+02
2.825426708E+01  3.314009705E+02
2.826900787E+01  3.304870300E+02
2.828374866E+01  3.299450684E+02
2.829848945E+01  3.294128723E+02
2.831323025E+01  3.302898560E+02
2.832797104E+01  3.289644470E+02
2.834271183E+01  3.277079773E+02
2.835745262E+01  3.280722046E+02
2.837219342E+01  3.294950867E+02
2.838693421E+01  3.285193481E+02
2.840167500E+01  3.291105042E+02
2.841641579E+01  3.288902893E+02
2.843115658E+01  3.283045959E+02
2.844589738E+01  3.281974792E+02
2.846063817E+01  3.288566895E+02
2.847537896E+01  3.294110413E+02
2.849011975E+01  3.292230225E+02
2.850486054E+01  3.297034607E+02
2.851960134E+01  3.296919556E+02
2.853434213E+01  3.290263672E+02
2.854908292E+01  3.288527222E+02
2.856382371E+01  3.287613220E+02
2.857856450E+01  3.278252563E+02
2.859330530E+01  3.275199585E+02
2.860804609E+01  3.275782166E+02
2.862278688E+01  3.285382690E+02
2.863752767E+01  3.300627136E+02
2.865226847E+01  3.297698364E+02
2.866700926E+01  3.289890442E+02
2.868175005E+01  3.287236633E+02
2.869649084E+01  3.295934753E+02
2.871123163E+01  3.287231750E+02
2.872597243E+01  3.285805359E+02
2.874071322E+01  3.296903381E+02
2.875545401E+01  3.301340027E+02
2.877019480E+01  3.291637878E+02
2.878493559E+01  3.281196289E+02
2.879967639E+01  3.291817322E+02
2.881441718E+01  3.289498596E+02
2.882915797E+01  3.282298889E+02
2.884389876E+01  3.278618469E+02
2.885863955E+01  3.278130798E+02
2.887338035E+01  3.284810486E+02
2.888812114E+01  3.283815613E+02
2.890286193E+01  3.279495544E+02
2.891760272E+01  3.270458374E+02
2.893234352E+01  3.285408325E+02
2.894708431E+01  3.299942627E+02
2.896182510E+01  3.296756897E+02
2.897656589E+01  3.285097046E+02
2.899130668E+01  3.274191895E+02
2.900604748E+01  3.272366638E+02
2.902078827E+01  3.280205688E+02
2.903552906E+01  3.285042725E+02
2.905026985E+01  3.285894470E+02
2.906501064E+01  3.280503540E+02
2.907975144E+01  3.287150269E+02
2.909449223E+01  3.296264954E+02
2.910923302E+01  3.301318359E+02
2.912397381E+01  3.304789734E+02
2.913871461E+01  3.322230225E+02
2.915345540E+01  3.348269348E+02
2.916819619E+01  3.351841125E+02
2.918293698E+01  3.353515320E+02
2.919767777E+01  3.363728638E+02
2.921241857E+01  3.379633789E+02
2.922715936E+01  3.371308289E+02
2.924190015E+01  3.352907104E+02
2.925664094E+01  3.332424316E+02
2.927138173E+01  3.331188354E+02
2.928612253E+01  3.328284607E+02
2.930086332E+01  3.318578796E+02
2.931560411E+01  3.314573975E+02
2.933034490E+01  3.319189758E+02
2.934508569E+01  3.309505615E+02
2.935982649E+01  3.296716003E+02
2.937456728E+01  3.299550171E+02
2.938930807E+01  3.299638672E+02
2.940404886E+01  3.285436096E+02
2.941878966E+01  3.277819824E+02
2.943353045E+01  3.282375488E+02
2.944827124E+01  3.288852844E+02
2.946301203E+01  3.288699036E+02
2.947775282E+01  3.276009216E+02
2.949249362E+01  3.280209351E+02
2.950723441E+01  3.285505981E+02
2.952197520E+01  3.283017578E+02
2.953671599E+01  3.282825623E+02
2.955145678E+01  3.289594421E+02
2.956619758E+01  3.277483826E+02
2.958093837E+01  3.268486633E+02
2.959567916E+01  3.256729126E+02
2.961041995E+01  3.245818787E+02
2.962516074E+01  3.251734009E+02
2.963990154E+01  3.249549255E+02
2.965464233E+01  3.242447815E+02
2.966938312E+01  3.243226624E+02
2.968412391E+01  3.238751526E+02
2.969886471E+01  3.221880798E+02
2.971360550E+01  3.219726868E+02
2.972834629E+01  3.217954102E+02
2.974308708E+01  3.210429382E+02
2.975782787E+01  3.211322937E+02
2.977256867E+01  3.207004089E+02
2.978730946E+01  3.192075195E+02
2.980205025E+01  3.180663147E+02
2.981679104E+01  3.183287964E+02
2.983153183E+01  3.177662964E+02
2.984627263E+01  3.166455688E+02
2.986101342E+01  3.154062500E+02
2.987575421E+01  3.148487549E+02
2.989049500E+01  3.133023682E+02
2.990523579E+01  3.116187744E+02
2.991997659E+01  3.100261230E+02
2.993471738E+01  3.088027039E+02
2.994945817E+01  3.071477661E+02
2.996419896E+01  3.053062439E+02
2.997893976E+01  3.040835266E+02
2.999368055E+01  3.030180359E+02
3.000842134E+01  3.012379150E+02
3.002316213E+01  2.996014404E+02
3.003790292E+01  2.977932739E+02
3.005264372E+01  2.955175781E+02
3.006738451E+01  2.938993225E+02
3.008212530E+01  2.924374084E+02
3.009686609E+01  2.918392639E+02
3.011160688E+01  2.889796753E+02
3.012634768E+01  2.866678162E+02
3.014108847E+01  2.840387878E+02
3.015582926E+01  2.797097473E+02
3.017057005E+01  2.773146057E+02
3.018531085E+01  2.754757996E+02
3.020005164E+01  2.714970093E+02
3.021479243E+01  2.683410645E+02
3.022953322E+01  2.648805542E+02
3.024427401E+01  2.620466614E+02
3.025901481E+01  2.598772888E+02
3.027375560E+01  2.562083435E+02
3.028849639E+01  2.529053345E+02
3.030323718E+01  2.509847412E+02
3.031797797E+01  2.483170624E+02
3.033271877E+01  2.473193207E+02
3.034745956E+01  2.464671631E+02
3.036220035E+01  2.446479187E+02
3.037694114E+01  2.429274902E+02
3.039168193E+01  2.410679474E+02
3.040642273E+01  2.400546417E+02
3.042116352E+01  2.388154144E+02
3.043590431E+01  2.361010742E+02
3.045064510E+01  2.345686035E+02
3.046538590E+01  2.338143005E+02
3.048012669E+01  2.336788788E+02
3.049486748E+01  2.317691498E+02
3.050960827E+01  2.285930939E+02
3.052434906E+01  2.271725616E+02
3.053908986E+01  2.257799377E+02
3.055383065E+01  2.240069885E+02
3.056857144E+01  2.225234528E+02
3.058331223E+01  2.211295166E+02
3.059805302E+01  2.194537659E+02
3.061279382E+01  2.179337921E+02
3.062753461E+01  2.166429138E+02
3.064227540E+01  2.136844788E+02
3.065701619E+01  2.113599243E+02
3.067175698E+01  2.100276184E+02
3.068649778E+01  2.086576233E+02
3.070123857E+01  2.073687286E+02
3.071597936E+01  2.057532806E+02
3.073072015E+01  2.037256012E+02
3.074546095E+01  2.017409058E+02
3.076020174E+01  1.991653748E+02
3.077494253E+01  1.976080170E+02
3.078968332E+01  1.961903534E+02
3.080442411E+01  1.944261932E+02
3.081916491E+01  1.917530975E+02
3.083390570E+01  1.896547241E+02
3.084864649E+01  1.881307983E+02
3.086338728E+01  1.862364502E+02
3.087812807E+01  1.845669250E+02
3.089286887E+01  1.824908752E+02
3.090760966E+01  1.799615631E+02
3.092235045E+01  1.782664337E+02
3.093709124E+01  1.764166260E+02
3.095183203E+01  1.739079742E+02
3.096657283E+01  1.736562500E+02
3.098131362E+01  1.724216461E+02
3.099605441E+01  1.703189545E+02
3.101079520E+01  1.686195984E+02
3.102553600E+01  1.666583405E+02
3.104027679E+01  1.647014618E+02
3.105501758E+01  1.631227417E+02
3.106975837E+01  1.609398499E+02
3.108449916E+01  1.592449951E+02
3.109923996E+01  1.575707703E+02
3.111398075E+01  1.558274231E+02
3.112872154E+01  1.547364197E+02
3.114346233E+01  1.523962708E+02
3.115820312E+01  1.503021851E+02
3.117294392E+01  1.483723297E+02
3.118768471E+01  1.465091705E+02
3.120242550E+01  1.449578705E+02
3.121716629E+01  1.437334137E+02
3.123190709E+01  1.419647675E+02
3.124664788E+01  1.400411377E+02
3.126138867E+01  1.375727539E+02
3.127612946E+01  1.355159607E+02
3.129087025E+01  1.345433960E+02
3.130561105E+01  1.328851929E+02
3.132035184E+01  1.311623688E+02
3.133509263E+01  1.293343353E+02
3.134983342E+01  1.276895828E+02
3.136457421E+01  1.258384781E+02
3.137931501E+01  1.240648727E+02
3.139405580E+01  1.225262299E+02
3.140879659E+01  1.210354462E+02
3.142353738E+01  1.196079559E+02
3.143827817E+01  1.179836197E+02
3.145301897E+01  1.162120361E+02
3.146775976E+01  1.148243179E+02
3.148250055E+01  1.139704437E+02
3.149724134E+01  1.120898819E+02
3.151198214E+01  1.097971115E+02
3.152672293E+01  1.083350449E+02
3.154146372E+01  1.075394592E+02
3.155620451E+01  1.056923828E+02
3.157094530E+01  1.040088577E+02
3.158568610E+01  1.027338181E+02
3.160042689E+01  1.017466431E+02
3.161516768E+01  9.990349579E+01
3.162990847E+01  9.795772552E+01
3.164464926E+01  9.636331177E+01
3.165939006E+01  9.394434357E+01
3.167413085E+01  9.228340149E+01
3.168887164E+01  9.075164032E+01
3.170361243E+01  8.910644531E+01
3.171835322E+01  8.834389496E+01
3.173309402E+01  8.660485840E+01
3.174783481E+01  8.561505890E+01
3.176257560E+01  8.407974243E+01
3.177731639E+01  8.172534180E+01
3.179205719E+01  8.051782990E+01
3.180679798E+01  8.010346222E+01
3.182153877E+01  7.820439911E+01
3.183627956E+01  7.488093567E+01
3.185102035E+01  7.350122833E+01
3.186576115E+01  7.384333038E+01
3.188050194E+01  7.178875732E+01
3.189524273E+01  6.801210785E+01
3.190998352E+01  6.441610718E+01
3.192472431E+01  6.325740433E+01
3.193946511E+01  6.208905792E+01
3.195420590E+01  6.028898621E+01
3.196894669E+01  6.003681946E+01
3.198368748E+01  6.177248001E+01
3.199842827E+01  6.448841858E+01
3.201316907E+01  6.085983658E+01
3.202790986E+01  4.773083878E+01
3.204265065E+01  4.773083878E+01
3.205739144E+01  5.646849442E+01
3.207213224E+01  5.252953720E+01
3.208687303E+01  5.086648178E+01
