# == pyFAI calibration ==
# Distance Sample to Detector: 0.11507480176033233 m
# PONI: 5.477e-03, 4.716e-03 m
# Rotations: 0.004686 0.005536 0.000000 rad
# 
# == Fit2d calibration ==
# Distance Sample-beamCenter: 115.078 mm
# Center: x=55.690, y=81.516 pix
# Tilt: 0.416 deg  TiltPlanRot: 130.247 deg
# 
# Detector Detector	 Spline= None	 PixelSize= 7.500e-05, 7.500e-05 m
#    Detector has a mask: False 
#    Detector has a dark current: False 
#    detector has a flat field: False 
# 
# Wavelength: 4.833e-11 m
# Mask applied: None
# Dark current applied: None
# Flat field applied: None
# Polarization factor: None
# Normalization factor: None
#
# 2th_deg	 I
1.131209591E+00  5.452636719E+01
1.145950384E+00  7.097775269E+01
1.160691176E+00  9.211591339E+01
1.175431968E+00  1.014979401E+02
1.190172760E+00  1.152256393E+02
1.204913552E+00  1.248506317E+02
1.219654344E+00  1.364966736E+02
1.234395136E+00  1.432136230E+02
1.249135928E+00  1.500297089E+02
1.263876720E+00  1.585473785E+02
1.278617513E+00  1.655801697E+02
1.293358305E+00  1.694280396E+02
1.308099097E+00  1.714394073E+02
1.322839889E+00  1.765854492E+02
1.337580681E+00  1.828493347E+02
1.352321473E+00  1.863791504E+02
1.367062265E+00  1.892609406E+02
1.381803057E+00  1.911361694E+02
1.396543850E+00  1.960286560E+02
1.411284642E+00  2.002672577E+02
1.426025434E+00  2.020541992E+02
1.440766226E+00  2.059706726E+02
1.455507018E+00  2.074551239E+02
1.470247810E+00  2.102406006E+02
1.484988602E+00  2.138075562E+02
1.499729394E+00  2.158886108E+02
1.514470186E+00  2.180789490E+02
1.529210979E+00  2.199359131E+02
1.543951771E+00  2.220677795E+02
1.558692563E+00  2.243855133E+02
1.573433355E+00  2.247452850E+02
1.588174147E+00  2.256037750E+02
1.602914939E+00  2.252297363E+02
1.617655731E+00  2.272210541E+02
1.632396523E+00  2.303065796E+02
1.647137315E+00  2.345137177E+02
1.661878108E+00  2.373851166E+02
1.676618900E+00  2.361703186E+02
1.691359692E+00  2.365203705E+02
1.706100484E+00  2.372460785E+02
1.720841276E+00  2.397735748E+02
1.735582068E+00  2.414580231E+02
1.750322860E+00  2.424344482E+02
1.765063652E+00  2.420606232E+02
1.779804444E+00  2.424472809E+02
1.794545237E+00  2.425993347E+02
1.809286029E+00  2.444287872E+02
1.824026821E+00  2.458679657E+02
1.838767613E+00  2.473874817E+02
1.853508405E+00  2.483239594E+02
1.868249197E+00  2.467697296E+02
1.882989989E+00  2.475005798E+02
1.897730781E+00  2.486853943E+02
1.912471573E+00  2.510509338E+02
1.927212366E+00  2.537588654E+02
1.941953158E+00  2.537137451E+02
1.956693950E+00  2.564201355E+02
1.971434742E+00  2.582329407E+02
1.986175534E+00  2.599208374E+02
2.000916326E+00  2.614356384E+02
2.015657118E+00  2.621563721E+02
2.030397910E+00  2.647303772E+02
2.045138702E+00  2.670150757E+02
2.059879495E+00  2.680292969E+02
2.074620287E+00  2.693284912E+02
2.089361079E+00  2.703089905E+02
2.104101871E+00  2.722029114E+02
2.118842663E+00  2.738934631E+02
2.133583455E+00  2.760142822E+02
2.148324247E+00  2.778235168E+02
2.163065039E+00  2.782522888E+02
2.177805831E+00  2.781701050E+02
2.192546624E+00  2.786842651E+02
2.207287416E+00  2.793975525E+02
2.222028208E+00  2.817754517E+02
2.236769000E+00  2.823963928E+02
2.251509792E+00  2.829127808E+02
2.266250584E+00  2.829834290E+02
2.280991376E+00  2.831150818E+02
2.295732168E+00  2.838687744E+02
2.310472960E+00  2.837019043E+02
2.325213753E+00  2.846950073E+02
2.339954545E+00  2.849422607E+02
2.354695337E+00  2.853139343E+02
2.369436129E+00  2.861991272E+02
2.384176921E+00  2.870983582E+02
2.398917713E+00  2.875007629E+02
2.413658505E+00  2.876008606E+02
2.428399297E+00  2.876675110E+02
2.443140089E+00  2.875530701E+02
2.457880882E+00  2.879915466E+02
2.472621674E+00  2.877786865E+02
2.487362466E+00  2.871454468E+02
2.502103258E+00  2.877804871E+02
2.516844050E+00  2.885426025E+02
2.531584842E+00  2.897064819E+02
2.546325634E+00  2.902491760E+02
2.561066426E+00  2.878457031E+02
2.575807219E+00  2.863193359E+02
2.590548011E+00  2.858859863E+02
2.605288803E+00  2.864996643E+02
2.620029595E+00  2.876431580E+02
2.634770387E+00  2.883632202E+02
2.649511179E+00  2.883536072E+02
2.664251971E+00  2.874273987E+02
2.678992763E+00  2.868578491E+02
2.693733555E+00  2.862257080E+02
2.708474348E+00  2.861731262E+02
2.723215140E+00  2.854199524E+02
2.737955932E+00  2.844582825E+02
2.752696724E+00  2.847036438E+02
2.767437516E+00  2.846139832E+02
2.782178308E+00  2.838523865E+02
2.796919100E+00  2.834190979E+02
2.811659892E+00  2.827929382E+02
2.826400684E+00  2.826598206E+02
2.841141477E+00  2.839509583E+02
2.855882269E+00  2.846871948E+02
2.870623061E+00  2.855472107E+02
2.885363853E+00  2.849403992E+02
2.900104645E+00  2.844768066E+02
2.914845437E+00  2.837359314E+02
2.929586229E+00  2.830632324E+02
2.944327021E+00  2.813339844E+02
2.959067813E+00  2.802813110E+02
2.973808606E+00  2.800744934E+02
2.988549398E+00  2.802498779E+02
3.003290190E+00  2.802685242E+02
3.018030982E+00  2.800908203E+02
3.032771774E+00  2.805319214E+02
3.047512566E+00  2.818072510E+02
3.062253358E+00  2.821094666E+02
3.076994150E+00  2.810274963E+02
3.091734942E+00  2.800341187E+02
3.106475735E+00  2.799039307E+02
3.121216527E+00  2.809671936E+02
3.135957319E+00  2.804031067E+02
3.150698111E+00  2.801534424E+02
3.165438903E+00  2.789401855E+02
3.180179695E+00  2.783628540E+02
3.194920487E+00  2.787813110E+02
3.209661279E+00  2.789190369E+02
3.224402071E+00  2.796512756E+02
3.239142864E+00  2.791501465E+02
3.253883656E+00  2.785061340E+02
3.268624448E+00  2.788567810E+02
3.283365240E+00  2.794426270E+02
3.298106032E+00  2.790516357E+02
3.312846824E+00  2.782587891E+02
3.327587616E+00  2.774367371E+02
3.342328408E+00  2.776955261E+02
3.357069200E+00  2.780421753E+02
3.371809993E+00  2.780893860E+02
3.386550785E+00  2.761687927E+02
3.401291577E+00  2.748612061E+02
3.416032369E+00  2.733160706E+02
3.430773161E+00  2.732628174E+02
3.445513953E+00  2.738400879E+02
3.460254745E+00  2.744477844E+02
3.474995537E+00  2.750970459E+02
3.489736329E+00  2.743737183E+02
3.504477122E+00  2.741973877E+02
3.519217914E+00  2.733463440E+02
3.533958706E+00  2.739383850E+02
3.548699498E+00  2.744788513E+02
3.563440290E+00  2.744555054E+02
3.578181082E+00  2.738332520E+02
3.592921874E+00  2.739603271E+02
3.607662666E+00  2.729022217E+02
3.622403458E+00  2.728531189E+02
3.637144251E+00  2.713979797E+02
3.651885043E+00  2.701516113E+02
3.666625835E+00  2.694414062E+02
3.681366627E+00  2.691604309E+02
3.696107419E+00  2.689412537E+02
3.710848211E+00  2.681258240E+02
3.725589003E+00  2.685046082E+02
3.740329795E+00  2.701708679E+02
3.755070587E+00  2.709093018E+02
3.769811380E+00  2.710671387E+02
3.784552172E+00  2.723226318E+02
3.799292964E+00  2.735316772E+02
3.814033756E+00  2.766806946E+02
3.828774548E+00  2.780214844E+02
3.843515340E+00  2.789217834E+02
3.858256132E+00  2.799020996E+02
3.872996924E+00  2.799132080E+02
3.887737717E+00  2.795777283E+02
3.902478509E+00  2.794370422E+02
3.917219301E+00  2.781831360E+02
3.931960093E+00  2.768419800E+02
3.946700885E+00  2.748905334E+02
3.961441677E+00  2.736530762E+02
3.976182469E+00  2.717700806E+02
3.990923261E+00  2.705923767E+02
4.005664053E+00  2.692745972E+02
4.020404846E+00  2.681120605E+02
4.035145638E+00  2.672715149E+02
4.049886430E+00  2.664451294E+02
4.064627222E+00  2.657779236E+02
4.079368014E+00  2.645216980E+02
4.094108806E+00  2.634057312E+02
4.108849598E+00  2.623048401E+02
4.123590390E+00  2.622371521E+02
4.138331182E+00  2.619857483E+02
4.153071975E+00  2.616011963E+02
4.167812767E+00  2.608552551E+02
4.182553559E+00  2.606691284E+02
4.197294351E+00  2.604557495E+02
4.212035143E+00  2.600498962E+02
4.226775935E+00  2.580303040E+02
4.241516727E+00  2.563219910E+02
4.256257519E+00  2.555672607E+02
4.270998311E+00  2.563287964E+02
4.285739104E+00  2.565564270E+02
4.300479896E+00  2.567082825E+02
4.315220688E+00  2.562628479E+02
4.329961480E+00  2.554898529E+02
4.344702272E+00  2.543965607E+02
4.359443064E+00  2.528471527E+02
4.374183856E+00  2.526179657E+02
4.388924648E+00  2.525657349E+02
4.403665440E+00  2.517113647E+02
4.418406233E+00  2.514092102E+02
4.433147025E+00  2.511479340E+02
4.447887817E+00  2.508674469E+02
4.462628609E+00  2.502856140E+02
4.477369401E+00  2.500817413E+02
4.492110193E+00  2.497635040E+02
4.506850985E+00  2.491946869E+02
4.521591777E+00  2.489411469E+02
4.536332569E+00  2.483614502E+02
4.551073362E+00  2.479217987E+02
4.565814154E+00  2.475229187E+02
4.580554946E+00  2.471695557E+02
4.595295738E+00  2.470259705E+02
4.610036530E+00  2.460935364E+02
4.624777322E+00  2.454462433E+02
4.639518114E+00  2.451861420E+02
4.654258906E+00  2.451877441E+02
4.668999698E+00  2.451195679E+02
4.683740491E+00  2.458905334E+02
4.698481283E+00  2.457217102E+02
4.713222075E+00  2.462491608E+02
4.727962867E+00  2.452097473E+02
4.742703659E+00  2.457691193E+02
4.757444451E+00  2.450720825E+02
4.772185243E+00  2.450980377E+02
4.786926035E+00  2.443791351E+02
4.801666827E+00  2.440418549E+02
4.816407620E+00  2.434685974E+02
4.831148412E+00  2.433572998E+02
4.845889204E+00  2.423704376E+02
4.860629996E+00  2.417133484E+02
4.875370788E+00  2.410545807E+02
4.890111580E+00  2.417292786E+02
4.904852372E+00  2.421987915E+02
4.919593164E+00  2.422560577E+02
4.934333956E+00  2.419837189E+02
4.949074749E+00  2.414093475E+02
4.963815541E+00  2.409424744E+02
4.978556333E+00  2.408055878E+02
4.993297125E+00  2.404363556E+02
5.008037917E+00  2.398117676E+02
5.022778709E+00  2.397103577E+02
5.037519501E+00  2.394674072E+02
5.052260293E+00  2.397913208E+02
5.067001086E+00  2.400828247E+02
5.081741878E+00  2.403248291E+02
5.096482670E+00  2.398111267E+02
5.111223462E+00  2.387929535E+02
5.125964254E+00  2.382221069E+02
5.140705046E+00  2.378033600E+02
5.155445838E+00  2.374786377E+02
5.170186630E+00  2.373244476E+02
5.184927422E+00  2.372710724E+02
5.199668215E+00  2.377224426E+02
5.214409007E+00  2.378656616E+02
5.229149799E+00  2.383555603E+02
5.243890591E+00  2.381001434E+02
5.258631383E+00  2.374774475E+02
5.273372175E+00  2.375084991E+02
5.288112967E+00  2.367346802E+02
5.302853759E+00  2.363844147E+02
5.317594551E+00  2.353966827E+02
5.332335344E+00  2.350858917E+02
5.347076136E+00  2.340162811E+02
5.361816928E+00  2.337075500E+02
5.376557720E+00  2.335162964E+02
5.391298512E+00  2.343540955E+02
5.406039304E+00  2.347402344E+02
5.420780096E+00  2.346592865E+02
5.435520888E+00  2.338660431E+02
5.450261680E+00  2.337366486E+02
5.465002473E+00  2.342469025E+02
5.479743265E+00  2.350953369E+02
5.494484057E+00  2.347051697E+02
5.509224849E+00  2.347306213E+02
5.523965641E+00  2.336765747E+02
5.538706433E+00  2.327996368E+02
5.553447225E+00  2.327194824E+02
5.568188017E+00  2.331737366E+02
5.582928809E+00  2.334241486E+02
5.597669602E+00  2.343410034E+02
5.612410394E+00  2.357456360E+02
5.627151186E+00  2.360227966E+02
5.641891978E+00  2.348406677E+02
5.656632770E+00  2.339756927E+02
5.671373562E+00  2.333330383E+02
5.686114354E+00  2.337693176E+02
5.700855146E+00  2.337929688E+02
5.715595938E+00  2.348397064E+02
5.730336731E+00  2.352447052E+02
5.745077523E+00  2.353854675E+02
5.759818315E+00  2.355022888E+02
5.774559107E+00  2.353709412E+02
5.789299899E+00  2.362811890E+02
5.804040691E+00  2.373110046E+02
5.818781483E+00  2.367780762E+02
5.833522275E+00  2.353585510E+02
5.848263067E+00  2.341843262E+02
5.863003860E+00  2.339234009E+02
5.877744652E+00  2.347100525E+02
5.892485444E+00  2.344978485E+02
5.907226236E+00  2.336730042E+02
5.921967028E+00  2.329985352E+02
5.936707820E+00  2.323565979E+02
5.951448612E+00  2.313561707E+02
5.966189404E+00  2.314594269E+02
5.980930196E+00  2.311534271E+02
5.995670989E+00  2.315270844E+02
6.010411781E+00  2.318458252E+02
6.025152573E+00  2.317424622E+02
6.039893365E+00  2.317830963E+02
6.054634157E+00  2.317351837E+02
6.069374949E+00  2.320051727E+02
6.084115741E+00  2.319517670E+02
6.098856533E+00  2.325704041E+02
6.113597325E+00  2.323525543E+02
6.128338118E+00  2.326306610E+02
6.143078910E+00  2.325434570E+02
6.157819702E+00  2.325960846E+02
6.172560494E+00  2.320664825E+02
6.187301286E+00  2.321673889E+02
6.202042078E+00  2.324507446E+02
6.216782870E+00  2.320184021E+02
6.231523662E+00  2.314022522E+02
6.246264454E+00  2.316012573E+02
6.261005247E+00  2.324782257E+02
6.275746039E+00  2.331136932E+02
6.290486831E+00  2.327947998E+02
6.305227623E+00  2.324287415E+02
6.319968415E+00  2.327175446E+02
6.334709207E+00  2.331752319E+02
6.349449999E+00  2.331495819E+02
6.364190791E+00  2.329393311E+02
6.378931584E+00  2.337350464E+02
6.393672376E+00  2.349064178E+02
6.408413168E+00  2.352234039E+02
6.423153960E+00  2.351026917E+02
6.437894752E+00  2.339273529E+02
6.452635544E+00  2.348811951E+02
6.467376336E+00  2.348301392E+02
6.482117128E+00  2.345641327E+02
6.496857920E+00  2.343183594E+02
6.511598713E+00  2.352168121E+02
6.526339505E+00  2.354843140E+02
6.541080297E+00  2.358141632E+02
6.555821089E+00  2.354498138E+02
6.570561881E+00  2.354786682E+02
6.585302673E+00  2.352432556E+02
6.600043465E+00  2.349145508E+02
6.614784257E+00  2.347833252E+02
6.629525049E+00  2.348121643E+02
6.644265842E+00  2.347315674E+02
6.659006634E+00  2.338908234E+02
6.673747426E+00  2.339515839E+02
6.688488218E+00  2.349754181E+02
6.703229010E+00  2.361872559E+02
6.717969802E+00  2.368973999E+02
6.732710594E+00  2.359020996E+02
6.747451386E+00  2.354039001E+02
6.762192178E+00  2.356336670E+02
6.776932971E+00  2.353133392E+02
6.791673763E+00  2.356261597E+02
6.806414555E+00  2.356214294E+02
6.821155347E+00  2.357008667E+02
6.835896139E+00  2.356174622E+02
6.850636931E+00  2.356899414E+02
6.865377723E+00  2.365687256E+02
6.880118515E+00  2.371588745E+02
6.894859307E+00  2.372663727E+02
6.909600100E+00  2.365091858E+02
6.924340892E+00  2.369120178E+02
6.939081684E+00  2.369861298E+02
6.953822476E+00  2.371976776E+02
6.968563268E+00  2.367523804E+02
6.983304060E+00  2.371230927E+02
6.998044852E+00  2.378207703E+02
7.012785644E+00  2.379547577E+02
7.027526436E+00  2.375266724E+02
7.042267229E+00  2.375414886E+02
7.057008021E+00  2.386003265E+02
7.071748813E+00  2.389197845E+02
7.086489605E+00  2.387882690E+02
7.101230397E+00  2.384193268E+02
7.115971189E+00  2.387301178E+02
7.130711981E+00  2.392185211E+02
7.145452773E+00  2.398504944E+02
7.160193565E+00  2.400913696E+02
7.174934358E+00  2.395925598E+02
7.189675150E+00  2.393989563E+02
7.204415942E+00  2.391967163E+02
7.219156734E+00  2.393481293E+02
7.233897526E+00  2.387626190E+02
7.248638318E+00  2.390657043E+02
7.263379110E+00  2.397173920E+02
7.278119902E+00  2.403372498E+02
7.292860694E+00  2.397349396E+02
7.307601487E+00  2.397259979E+02
7.322342279E+00  2.398270111E+02
7.337083071E+00  2.400439911E+02
7.351823863E+00  2.395015717E+02
7.366564655E+00  2.396053772E+02
7.381305447E+00  2.403114166E+02
7.396046239E+00  2.408520203E+02
7.410787031E+00  2.410629730E+02
7.425527823E+00  2.407107239E+02
7.440268616E+00  2.409037628E+02
7.455009408E+00  2.409447021E+02
7.469750200E+00  2.410303040E+02
7.484490992E+00  2.411263428E+02
7.499231784E+00  2.411551361E+02
7.513972576E+00  2.411919556E+02
7.528713368E+00  2.417120667E+02
7.543454160E+00  2.419571228E+02
7.558194953E+00  2.425274353E+02
7.572935745E+00  2.426794739E+02
7.587676537E+00  2.429820709E+02
7.602417329E+00  2.437912750E+02
7.617158121E+00  2.437574921E+02
7.631898913E+00  2.437825623E+02
7.646639705E+00  2.444764557E+02
7.661380497E+00  2.451147461E+02
7.676121289E+00  2.458972473E+02
7.690862082E+00  2.455389709E+02
7.705602874E+00  2.451444550E+02
7.720343666E+00  2.443860016E+02
7.735084458E+00  2.443258209E+02
7.749825250E+00  2.442605591E+02
7.764566042E+00  2.450254059E+02
7.779306834E+00  2.452990723E+02
7.794047626E+00  2.460255280E+02
7.808788418E+00  2.463702698E+02
7.823529211E+00  2.468752899E+02
7.838270003E+00  2.467178345E+02
7.853010795E+00  2.467851105E+02
7.867751587E+00  2.472093048E+02
7.882492379E+00  2.473347321E+02
7.897233171E+00  2.473354797E+02
7.911973963E+00  2.477154694E+02
7.926714755E+00  2.479477997E+02
7.941455547E+00  2.482004089E+02
7.956196340E+00  2.484145660E+02
7.970937132E+00  2.491246185E+02
7.985677924E+00  2.495040588E+02
8.000418716E+00  2.492578278E+02
8.015159508E+00  2.499964905E+02
8.029900300E+00  2.504747162E+02
8.044641092E+00  2.506847992E+02
8.059381884E+00  2.514561462E+02
8.074122676E+00  2.524050140E+02
8.088863469E+00  2.537751312E+02
8.103604261E+00  2.544645538E+02
8.118345053E+00  2.547593536E+02
8.133085845E+00  2.545965729E+02
8.147826637E+00  2.542785797E+02
8.162567429E+00  2.545918274E+02
8.177308221E+00  2.556024933E+02
8.192049013E+00  2.573351135E+02
8.206789805E+00  2.585698242E+02
8.221530598E+00  2.592062988E+02
8.236271390E+00  2.603103638E+02
8.251012182E+00  2.605723267E+02
8.265752974E+00  2.622882080E+02
8.280493766E+00  2.642277527E+02
8.295234558E+00  2.677366333E+02
8.309975350E+00  2.715567017E+02
8.324716142E+00  2.755183716E+02
8.339456934E+00  2.762002563E+02
8.354197727E+00  2.761361694E+02
8.368938519E+00  2.788556519E+02
8.383679311E+00  2.847848816E+02
8.398420103E+00  2.908630981E+02
8.413160895E+00  2.972525330E+02
8.427901687E+00  3.027476807E+02
8.442642479E+00  3.100451965E+02
8.457383271E+00  3.163576965E+02
8.472124063E+00  3.231978760E+02
8.486864856E+00  3.320756836E+02
8.501605648E+00  3.417792969E+02
8.516346440E+00  3.553951721E+02
8.531087232E+00  3.656671753E+02
8.545828024E+00  3.735270691E+02
8.560568816E+00  3.739516907E+02
8.575309608E+00  3.681586914E+02
8.590050400E+00  3.586465149E+02
8.604791192E+00  3.471798401E+02
8.619531985E+00  3.347677307E+02
8.634272777E+00  3.229634399E+02
8.649013569E+00  3.142466431E+02
8.663754361E+00  3.062370605E+02
8.678495153E+00  2.994360046E+02
8.693235945E+00  2.924774170E+02
8.707976737E+00  2.864887695E+02
8.722717529E+00  2.832017822E+02
8.737458321E+00  2.806327515E+02
8.752199114E+00  2.798595276E+02
8.766939906E+00  2.813083496E+02
8.781680698E+00  2.834410095E+02
8.796421490E+00  2.841033020E+02
8.811162282E+00  2.838023987E+02
8.825903074E+00  2.821987305E+02
8.840643866E+00  2.809939880E+02
8.855384658E+00  2.801445312E+02
8.870125451E+00  2.803478699E+02
8.884866243E+00  2.807405396E+02
8.899607035E+00  2.812279358E+02
8.914347827E+00  2.819454956E+02
8.929088619E+00  2.835379028E+02
8.943829411E+00  2.845043335E+02
8.958570203E+00  2.853996277E+02
8.973310995E+00  2.867077942E+02
8.988051787E+00  2.883751526E+02
9.002792580E+00  2.893067017E+02
9.017533372E+00  2.895020447E+02
9.032274164E+00  2.888346558E+02
9.047014956E+00  2.882176514E+02
9.061755748E+00  2.890781860E+02
9.076496540E+00  2.898254395E+02
9.091237332E+00  2.903435974E+02
9.105978124E+00  2.908942261E+02
9.120718916E+00  2.913457947E+02
9.135459709E+00  2.919519348E+02
9.150200501E+00  2.918215942E+02
9.164941293E+00  2.921736145E+02
9.179682085E+00  2.930473328E+02
9.194422877E+00  2.944341125E+02
9.209163669E+00  2.952400513E+02
9.223904461E+00  2.967421570E+02
9.238645253E+00  2.978127441E+02
9.253386045E+00  2.982762756E+02
9.268126838E+00  2.989122314E+02
9.282867630E+00  2.993798828E+02
9.297608422E+00  3.000675964E+02
9.312349214E+00  3.006622314E+02
9.327090006E+00  3.006066284E+02
9.341830798E+00  3.012368164E+02
9.356571590E+00  3.018041992E+02
9.371312382E+00  3.023085938E+02
9.386053174E+00  3.026333923E+02
9.400793967E+00  3.040228271E+02
9.415534759E+00  3.054069824E+02
9.430275551E+00  3.068668213E+02
9.445016343E+00  3.070719604E+02
9.459757135E+00  3.070916138E+02
9.474497927E+00  3.074518127E+02
9.489238719E+00  3.078086853E+02
9.503979511E+00  3.087963257E+02
9.518720303E+00  3.095924377E+02
9.533461096E+00  3.108378601E+02
9.548201888E+00  3.120671692E+02
9.562942680E+00  3.124926453E+02
9.577683472E+00  3.121456299E+02
9.592424264E+00  3.113523560E+02
9.607165056E+00  3.115728455E+02
9.621905848E+00  3.121958618E+02
9.636646640E+00  3.125883179E+02
9.651387432E+00  3.124133911E+02
9.666128225E+00  3.117382202E+02
9.680869017E+00  3.111115417E+02
9.695609809E+00  3.109300537E+02
9.710350601E+00  3.106011658E+02
9.725091393E+00  3.098910217E+02
9.739832185E+00  3.095600891E+02
9.754572977E+00  3.093077698E+02
9.769313769E+00  3.098085632E+02
9.784054561E+00  3.100848083E+02
9.798795354E+00  3.101333008E+02
9.813536146E+00  3.101364136E+02
9.828276938E+00  3.100857849E+02
9.843017730E+00  3.110475159E+02
9.857758522E+00  3.118737183E+02
9.872499314E+00  3.129231262E+02
9.887240106E+00  3.128805847E+02
9.901980898E+00  3.121460266E+02
9.916721690E+00  3.124440613E+02
9.931462483E+00  3.129078674E+02
9.946203275E+00  3.152371216E+02
9.960944067E+00  3.191525269E+02
9.975684859E+00  3.258407898E+02
9.990425651E+00  3.344081421E+02
1.000516644E+01  3.459714355E+02
1.001990724E+01  3.602510986E+02
1.003464803E+01  3.772489319E+02
1.004938882E+01  3.958983765E+02
1.006412961E+01  4.159742737E+02
1.007887040E+01  4.318359985E+02
1.009361120E+01  4.423339539E+02
1.010835199E+01  4.438912964E+02
1.012309278E+01  4.372527771E+02
1.013783357E+01  4.221307678E+02
1.015257436E+01  4.050622559E+02
1.016731516E+01  3.914440002E+02
1.018205595E+01  3.825566101E+02
1.019679674E+01  3.787277527E+02
1.021153753E+01  3.792854309E+02
1.022627832E+01  3.790659485E+02
1.024101912E+01  3.797414551E+02
1.025575991E+01  3.782966003E+02
1.027050070E+01  3.760597229E+02
1.028524149E+01  3.720142822E+02
1.029998229E+01  3.663817139E+02
1.031472308E+01  3.592306213E+02
1.032946387E+01  3.510629272E+02
1.034420466E+01  3.433995972E+02
1.035894545E+01  3.363706665E+02
1.037368625E+01  3.295437622E+02
1.038842704E+01  3.234546509E+02
1.040316783E+01  3.231871948E+02
1.041790862E+01  3.267079163E+02
1.043264941E+01  3.281285706E+02
1.044739021E+01  3.271858521E+02
1.046213100E+01  3.219713440E+02
1.047687179E+01  3.178986816E+02
1.049161258E+01  3.139304504E+02
1.050635337E+01  3.102520142E+02
1.052109417E+01  3.070782776E+02
1.053583496E+01  3.050354004E+02
1.055057575E+01  3.031595154E+02
1.056531654E+01  3.013054504E+02
1.058005734E+01  2.991093445E+02
1.059479813E+01  2.976732483E+02
1.060953892E+01  2.967624817E+02
1.062427971E+01  2.958135071E+02
1.063902050E+01  2.952757874E+02
1.065376130E+01  2.940064392E+02
1.066850209E+01  2.927927856E+02
1.068324288E+01  2.921441040E+02
1.069798367E+01  2.910043335E+02
1.071272446E+01  2.906051025E+02
1.072746526E+01  2.902192383E+02
1.074220605E+01  2.896575623E+02
1.075694684E+01  2.895519104E+02
1.077168763E+01  2.885896912E+02
1.078642843E+01  2.883593140E+02
1.080116922E+01  2.877754517E+02
1.081591001E+01  2.870586548E+02
1.083065080E+01  2.865915222E+02
1.084539159E+01  2.871482239E+02
1.086013239E+01  2.870403748E+02
1.087487318E+01  2.864835205E+02
1.088961397E+01  2.862042542E+02
1.090435476E+01  2.862534790E+02
1.091909555E+01  2.860418091E+02
1.093383635E+01  2.860443420E+02
1.094857714E+01  2.856618347E+02
1.096331793E+01  2.856088867E+02
1.097805872E+01  2.852160034E+02
1.099279951E+01  2.859329224E+02
1.100754031E+01  2.868150330E+02
1.102228110E+01  2.871937561E+02
1.103702189E+01  2.865321350E+02
1.105176268E+01  2.859493713E+02
1.106650348E+01  2.851203613E+02
1.108124427E+01  2.853681641E+02
1.109598506E+01  2.853650818E+02
1.111072585E+01  2.856292419E+02
1.112546664E+01  2.854528809E+02
1.114020744E+01  2.862283325E+02
1.115494823E+01  2.863047485E+02
1.116968902E+01  2.879332275E+02
1.118442981E+01  2.883940125E+02
1.119917060E+01  2.884891968E+02
1.121391140E+01  2.888807068E+02
1.122865219E+01  2.899530640E+02
1.124339298E+01  2.905589905E+02
1.125813377E+01  2.908464050E+02
1.127287456E+01  2.907558289E+02
1.128761536E+01  2.916788635E+02
1.130235615E+01  2.922634583E+02
1.131709694E+01  2.929040222E+02
1.133183773E+01  2.934463806E+02
1.134657853E+01  2.945003662E+02
1.136131932E+01  2.953318481E+02
1.137606011E+01  2.965155029E+02
1.139080090E+01  2.967239990E+02
1.140554169E+01  2.964933777E+02
1.142028249E+01  2.960780945E+02
1.143502328E+01  2.960361328E+02
1.144976407E+01  2.961682739E+02
1.146450486E+01  2.959335022E+02
1.147924565E+01  2.959897156E+02
1.149398645E+01  2.963391113E+02
1.150872724E+01  2.967286987E+02
1.152346803E+01  2.971210022E+02
1.153820882E+01  2.983262329E+02
1.155294961E+01  3.009263306E+02
1.156769041E+01  3.038440552E+02
1.158243120E+01  3.071296082E+02
1.159717199E+01  3.109390869E+02
1.161191278E+01  3.167552185E+02
1.162665358E+01  3.232166138E+02
1.164139437E+01  3.312198792E+02
1.165613516E+01  3.405446167E+02
1.167087595E+01  3.505763550E+02
1.168561674E+01  3.597458496E+02
1.170035754E+01  3.691669617E+02
1.171509833E+01  3.760157776E+02
1.172983912E+01  3.799255066E+02
1.174457991E+01  3.828551025E+02
1.175932070E+01  3.785913086E+02
1.177406150E+01  3.690809937E+02
1.178880229E+01  3.544570618E+02
1.180354308E+01  3.397807312E+02
1.181828387E+01  3.251715088E+02
1.183302467E+01  3.149078674E+02
1.184776546E+01  3.058443604E+02
1.186250625E+01  3.002438354E+02
1.187724704E+01  2.967184143E+02
1.189198783E+01  2.945776978E+02
1.190672863E+01  2.935678711E+02
1.192146942E+01  2.927634888E+02
1.193621021E+01  2.920760193E+02
1.195095100E+01  2.911668396E+02
1.196569179E+01  2.906223755E+02
1.198043259E+01  2.905533142E+02
1.199517338E+01  2.905616455E+02
1.200991417E+01  2.902145081E+02
1.202465496E+01  2.898581848E+02
1.203939575E+01  2.892598572E+02
1.205413655E+01  2.888409119E+02
1.206887734E+01  2.885833740E+02
1.208361813E+01  2.899239197E+02
1.209835892E+01  2.901696472E+02
1.211309972E+01  2.900424194E+02
1.212784051E+01  2.899529114E+02
1.214258130E+01  2.903805847E+02
1.215732209E+01  2.908181458E+02
1.217206288E+01  2.907538452E+02
1.218680368E+01  2.905570679E+02
1.220154447E+01  2.906670227E+02
1.221628526E+01  2.902417297E+02
1.223102605E+01  2.909644470E+02
1.224576684E+01  2.918579102E+02
1.226050764E+01  2.920954590E+02
1.227524843E+01  2.917113037E+02
1.228998922E+01  2.920369263E+02
1.230473001E+01  2.929285889E+02
1.231947080E+01  2.931449890E+02
1.233421160E+01  2.924807739E+02
1.234895239E+01  2.918430786E+02
1.236369318E+01  2.924998779E+02
1.237843397E+01  2.928767090E+02
1.239317477E+01  2.934260559E+02
1.240791556E+01  2.945299683E+02
1.242265635E+01  2.952922058E+02
1.243739714E+01  2.963066711E+02
1.245213793E+01  2.963584595E+02
1.246687873E+01  2.969012146E+02
1.248161952E+01  2.967940063E+02
1.249636031E+01  2.977769470E+02
1.251110110E+01  2.983853149E+02
1.252584189E+01  2.990174866E+02
1.254058269E+01  2.989710083E+02
1.255532348E+01  2.987703247E+02
1.257006427E+01  3.000299377E+02
1.258480506E+01  3.004098816E+02
1.259954585E+01  3.016000061E+02
1.261428665E+01  3.021525269E+02
1.262902744E+01  3.026742554E+02
1.264376823E+01  3.026001587E+02
1.265850902E+01  3.030438232E+02
1.267324982E+01  3.024031067E+02
1.268799061E+01  3.034148254E+02
1.270273140E+01  3.039907227E+02
1.271747219E+01  3.055177002E+02
1.273221298E+01  3.063217468E+02
1.274695378E+01  3.069421692E+02
1.276169457E+01  3.070783386E+02
1.277643536E+01  3.071830444E+02
1.279117615E+01  3.079751892E+02
1.280591694E+01  3.083910522E+02
1.282065774E+01  3.092013245E+02
1.283539853E+01  3.105189819E+02
1.285013932E+01  3.127399292E+02
1.286488011E+01  3.135793762E+02
1.287962091E+01  3.122433472E+02
1.289436170E+01  3.085296936E+02
1.290910249E+01  3.068511047E+02
1.292384328E+01  3.070693970E+02
1.293858407E+01  3.070725098E+02
1.295332487E+01  3.072864990E+02
1.296806566E+01  3.060661926E+02
1.298280645E+01  3.063059692E+02
1.299754724E+01  3.067036133E+02
1.301228803E+01  3.077889404E+02
1.302702883E+01  3.085631409E+02
1.304176962E+01  3.096800537E+02
1.305651041E+01  3.113494568E+02
1.307125120E+01  3.122763977E+02
1.308599199E+01  3.134407349E+02
1.310073279E+01  3.151981201E+02
1.311547358E+01  3.169138489E+02
1.313021437E+01  3.190448608E+02
1.314495516E+01  3.223064575E+02
1.315969596E+01  3.267553101E+02
1.317443675E+01  3.327603455E+02
1.318917754E+01  3.389232178E+02
1.320391833E+01  3.466874390E+02
1.321865912E+01  3.552046204E+02
1.323339992E+01  3.665143127E+02
1.324814071E+01  3.799724731E+02
1.326288150E+01  3.954558411E+02
1.327762229E+01  4.124926147E+02
1.329236308E+01  4.280934753E+02
1.330710388E+01  4.436725159E+02
1.332184467E+01  4.557797241E+02
1.333658546E+01  4.604552612E+02
1.335132625E+01  4.546775818E+02
1.336606704E+01  4.395265198E+02
1.338080784E+01  4.153216858E+02
1.339554863E+01  3.906908264E+02
1.341028942E+01  3.677426758E+02
1.342503021E+01  3.515358276E+02
1.343977101E+01  3.407372742E+02
1.345451180E+01  3.326589355E+02
1.346925259E+01  3.279015808E+02
1.348399338E+01  3.246358948E+02
1.349873417E+01  3.220442200E+02
1.351347497E+01  3.208054504E+02
1.352821576E+01  3.202265930E+02
1.354295655E+01  3.202115784E+02
1.355769734E+01  3.196327515E+02
1.357243813E+01  3.199274597E+02
1.358717893E+01  3.202445984E+02
1.360191972E+01  3.215762634E+02
1.361666051E+01  3.221037292E+02
1.363140130E+01  3.228747253E+02
1.364614209E+01  3.237221680E+02
1.366088289E+01  3.247493591E+02
1.367562368E+01  3.253077087E+02
1.369036447E+01  3.264441528E+02
1.370510526E+01  3.281130371E+02
1.371984606E+01  3.305013123E+02
1.373458685E+01  3.323692017E+02
1.374932764E+01  3.361150818E+02
1.376406843E+01  3.415303650E+02
1.377880922E+01  3.507931519E+02
1.379355002E+01  3.541700439E+02
1.380829081E+01  3.555403137E+02
1.382303160E+01  3.556087036E+02
1.383777239E+01  3.547752075E+02
1.385251318E+01  3.538010254E+02
1.386725398E+01  3.520328979E+02
1.388199477E+01  3.494377747E+02
1.389673556E+01  3.473679504E+02
1.391147635E+01  3.452413940E+02
1.392621715E+01  3.427909851E+02
1.394095794E+01  3.401387024E+02
1.395569873E+01  3.372038879E+02
1.397043952E+01  3.349142456E+02
1.398518031E+01  3.334696045E+02
1.399992111E+01  3.320584717E+02
1.401466190E+01  3.308494873E+02
1.402940269E+01  3.297060852E+02
1.404414348E+01  3.293833008E+02
1.405888427E+01  3.284123230E+02
1.407362507E+01  3.272399902E+02
1.408836586E+01  3.271575012E+02
1.410310665E+01  3.271811218E+02
1.411784744E+01  3.270907593E+02
1.413258823E+01  3.268706970E+02
1.414732903E+01  3.263200378E+02
1.416206982E+01  3.260620728E+02
1.417681061E+01  3.266141357E+02
1.419155140E+01  3.272281494E+02
1.420629220E+01  3.285432739E+02
1.422103299E+01  3.294012146E+02
1.423577378E+01  3.309451294E+02
1.425051457E+01  3.322720947E+02
1.426525536E+01  3.334086914E+02
1.427999616E+01  3.329637756E+02
1.429473695E+01  3.329202271E+02
1.430947774E+01  3.333044128E+02
1.432421853E+01  3.350819702E+02
1.433895932E+01  3.370704956E+02
1.435370012E+01  3.396705627E+02
1.436844091E+01  3.434033203E+02
1.438318170E+01  3.494081421E+02
1.439792249E+01  3.569523926E+02
1.441266328E+01  3.681919556E+02
1.442740408E+01  3.792014465E+02
1.444214487E+01  3.911090393E+02
1.445688566E+01  4.021059570E+02
1.447162645E+01  4.117764282E+02
1.448636725E+01  4.198495789E+02
1.450110804E+01  4.238405457E+02
1.451584883E+01  4.228648071E+02
1.453058962E+01  4.177920532E+02
1.454533041E+01  4.096203918E+02
1.456007121E+01  4.017212830E+02
1.457481200E+01  3.926381836E+02
1.458955279E+01  3.844143066E+02
1.460429358E+01  3.771196899E+02
1.461903437E+01  3.728832092E+02
1.463377517E+01  3.704955444E+02
1.464851596E+01  3.681361389E+02
1.466325675E+01  3.657276917E+02
1.467799754E+01  3.635250854E+02
1.469273833E+01  3.624131470E+02
1.470747913E+01  3.618003540E+02
1.472221992E+01  3.605592041E+02
1.473696071E+01  3.596177368E+02
1.475170150E+01  3.578460083E+02
1.476644230E+01  3.560931091E+02
1.478118309E+01  3.535093384E+02
1.479592388E+01  3.503782959E+02
1.481066467E+01  3.480345459E+02
1.482540546E+01  3.450761414E+02
1.484014626E+01  3.432093201E+02
1.485488705E+01  3.420212402E+02
1.486962784E+01  3.405367432E+02
1.488436863E+01  3.389323425E+02
1.489910942E+01  3.373064880E+02
1.491385022E+01  3.374877014E+02
1.492859101E+01  3.386036682E+02
1.494333180E+01  3.389887695E+02
1.495807259E+01  3.412843628E+02
1.497281339E+01  3.436041565E+02
1.498755418E+01  3.458571472E+02
1.500229497E+01  3.488723755E+02
1.501703576E+01  3.508656616E+02
1.503177655E+01  3.534091187E+02
1.504651735E+01  3.542543945E+02
1.506125814E+01  3.542067871E+02
1.507599893E+01  3.535207520E+02
1.509073972E+01  3.519339294E+02
1.510548051E+01  3.485629578E+02
1.512022131E+01  3.462249756E+02
1.513496210E+01  3.426206970E+02
1.514970289E+01  3.402223816E+02
1.516444368E+01  3.371896362E+02
1.517918447E+01  3.342368774E+02
1.519392527E+01  3.317388306E+02
1.520866606E+01  3.304323730E+02
1.522340685E+01  3.302490540E+02
1.523814764E+01  3.298631897E+02
1.525288844E+01  3.300389099E+02
1.526762923E+01  3.293649597E+02
1.528237002E+01  3.287436523E+02
1.529711081E+01  3.278203430E+02
1.531185160E+01  3.278049927E+02
1.532659240E+01  3.277141418E+02
1.534133319E+01  3.275452576E+02
1.535607398E+01  3.276655579E+02
1.537081477E+01  3.283764038E+02
1.538555556E+01  3.286816406E+02
1.540029636E+01  3.282678528E+02
1.541503715E+01  3.276894226E+02
1.542977794E+01  3.280054016E+02
1.544451873E+01  3.281464233E+02
1.545925952E+01  3.288345947E+02
1.547400032E+01  3.283035889E+02
1.548874111E+01  3.279028625E+02
1.550348190E+01  3.277648926E+02
1.551822269E+01  3.289535217E+02
1.553296349E+01  3.296650696E+02
1.554770428E+01  3.292734680E+02
1.556244507E+01  3.283702087E+02
1.557718586E+01  3.289315491E+02
1.559192665E+01  3.295019226E+02
1.560666745E+01  3.303554077E+02
1.562140824E+01  3.314215698E+02
1.563614903E+01  3.319324341E+02
1.565088982E+01  3.318477173E+02
1.566563061E+01  3.307505493E+02
1.568037141E+01  3.306469421E+02
1.569511220E+01  3.310946045E+02
1.570985299E+01  3.307501526E+02
1.572459378E+01  3.308558655E+02
1.573933457E+01  3.303078003E+02
1.575407537E+01  3.300025330E+02
1.576881616E+01  3.295877991E+02
1.578355695E+01  3.293197021E+02
1.579829774E+01  3.287624207E+02
1.581303854E+01  3.277524109E+02
1.582777933E+01  3.271088257E+02
1.584252012E+01  3.267346191E+02
1.585726091E+01  3.264253845E+02
1.587200170E+01  3.259668579E+02
1.588674250E+01  3.259305725E+02
1.590148329E+01  3.254805298E+02
1.591622408E+01  3.252585754E+02
1.593096487E+01  3.252637329E+02
1.594570566E+01  3.247051392E+02
1.596044646E+01  3.252807922E+02
1.597518725E+01  3.250611572E+02
1.598992804E+01  3.252377930E+02
1.600466883E+01  3.254553833E+02
1.601940963E+01  3.259161987E+02
1.603415042E+01  3.261532288E+02
1.604889121E+01  3.262261047E+02
1.606363200E+01  3.262884521E+02
1.607837279E+01  3.266336365E+02
1.609311359E+01  3.264548035E+02
1.610785438E+01  3.262966919E+02
1.612259517E+01  3.263179626E+02
1.613733596E+01  3.263693237E+02
1.615207675E+01  3.262485962E+02
1.616681755E+01  3.267832642E+02
1.618155834E+01  3.267466431E+02
1.619629913E+01  3.267604675E+02
1.621103992E+01  3.276261597E+02
1.622578071E+01  3.284902039E+02
1.624052151E+01  3.297421265E+02
1.625526230E+01  3.305776062E+02
1.627000309E+01  3.310119934E+02
1.628474388E+01  3.308939514E+02
1.629948468E+01  3.313892212E+02
1.631422547E+01  3.322268372E+02
1.632896626E+01  3.332476807E+02
1.634370705E+01  3.339844971E+02
1.635844784E+01  3.343031006E+02
1.637318864E+01  3.337152100E+02
1.638792943E+01  3.339279785E+02
1.640267022E+01  3.344282227E+02
1.641741101E+01  3.355167847E+02
1.643215180E+01  3.358228455E+02
1.644689260E+01  3.351979370E+02
1.646163339E+01  3.334054871E+02
1.647637418E+01  3.333230896E+02
1.649111497E+01  3.334441223E+02
1.650585576E+01  3.335916443E+02
1.652059656E+01  3.329070129E+02
1.653533735E+01  3.325161438E+02
1.655007814E+01  3.329613647E+02
1.656481893E+01  3.331778259E+02
1.657955973E+01  3.327126465E+02
1.659430052E+01  3.325785522E+02
1.660904131E+01  3.326226196E+02
1.662378210E+01  3.326719055E+02
1.663852289E+01  3.331393738E+02
1.665326369E+01  3.338193665E+02
1.666800448E+01  3.350441589E+02
1.668274527E+01  3.352250671E+02
1.669748606E+01  3.359252625E+02
1.671222685E+01  3.371691589E+02
1.672696765E+01  3.385880432E+02
1.674170844E+01  3.399973450E+02
1.675644923E+01  3.409938049E+02
1.677119002E+01  3.429838867E+02
1.678593081E+01  3.456787109E+02
1.680067161E+01  3.486672974E+02
1.681541240E+01  3.518965149E+02
1.683015319E+01  3.537076416E+02
1.684489398E+01  3.553217163E+02
1.685963478E+01  3.545937805E+02
1.687437557E+01  3.536766357E+02
1.688911636E+01  3.515904236E+02
1.690385715E+01  3.492484131E+02
1.691859794E+01  3.463874817E+02
1.693333874E+01  3.433210144E+02
1.694807953E+01  3.405894165E+02
1.696282032E+01  3.380068054E+02
1.697756111E+01  3.356537170E+02
1.699230190E+01  3.340637207E+02
1.700704270E+01  3.336694641E+02
1.702178349E+01  3.331832275E+02
1.703652428E+01  3.333722534E+02
1.705126507E+01  3.334659424E+02
1.706600587E+01  3.331983643E+02
1.708074666E+01  3.326722107E+02
1.709548745E+01  3.334643555E+02
1.711022824E+01  3.341815796E+02
1.712496903E+01  3.342919922E+02
1.713970983E+01  3.334160767E+02
1.715445062E+01  3.330719910E+02
1.716919141E+01  3.337803040E+02
1.718393220E+01  3.339335938E+02
1.719867299E+01  3.342118835E+02
1.721341379E+01  3.343066711E+02
1.722815458E+01  3.336483154E+02
1.724289537E+01  3.331502991E+02
1.725763616E+01  3.339453735E+02
1.727237695E+01  3.357998657E+02
1.728711775E+01  3.364971619E+02
1.730185854E+01  3.358025818E+02
1.731659933E+01  3.345177612E+02
1.733134012E+01  3.340707092E+02
1.734608092E+01  3.338225098E+02
1.736082171E+01  3.340208130E+02
1.737556250E+01  3.333836975E+02
1.739030329E+01  3.330580444E+02
1.740504408E+01  3.328177795E+02
1.741978488E+01  3.326024170E+02
1.743452567E+01  3.328305054E+02
1.744926646E+01  3.326921997E+02
1.746400725E+01  3.330275574E+02
1.747874804E+01  3.334559937E+02
1.749348884E+01  3.342644653E+02
1.750822963E+01  3.349854431E+02
1.752297042E+01  3.348138428E+02
1.753771121E+01  3.349060364E+02
1.755245200E+01  3.355466919E+02
1.756719280E+01  3.365073547E+02
1.758193359E+01  3.380413208E+02
1.759667438E+01  3.390770569E+02
1.761141517E+01  3.401087036E+02
1.762615597E+01  3.408293152E+02
1.764089676E+01  3.417910156E+02
1.765563755E+01  3.425117798E+02
1.767037834E+01  3.446550293E+02
1.768511913E+01  3.465520020E+02
1.769985993E+01  3.486486511E+02
1.771460072E+01  3.505310669E+02
1.772934151E+01  3.520449219E+02
1.774408230E+01  3.536773987E+02
1.775882309E+01  3.552533569E+02
1.777356389E+01  3.568537903E+02
1.778830468E+01  3.572761230E+02
1.780304547E+01  3.572310791E+02
1.781778626E+01  3.575472107E+02
1.783252705E+01  3.572180481E+02
1.784726785E+01  3.561461487E+02
1.786200864E+01  3.546057434E+02
1.787674943E+01  3.535226440E+02
1.789149022E+01  3.523914490E+02
1.790623102E+01  3.515419922E+02
1.792097181E+01  3.499079895E+02
1.793571260E+01  3.482768555E+02
1.795045339E+01  3.467518005E+02
1.796519418E+01  3.449820251E+02
1.797993498E+01  3.438670349E+02
1.799467577E+01  3.425639954E+02
1.800941656E+01  3.416890259E+02
1.802415735E+01  3.405886841E+02
1.803889814E+01  3.397987366E+02
1.805363894E+01  3.394047241E+02
1.806837973E+01  3.387234192E+02
1.808312052E+01  3.376607666E+02
1.809786131E+01  3.368191833E+02
1.811260211E+01  3.358752441E+02
1.812734290E+01  3.354623413E+02
1.814208369E+01  3.362147522E+02
1.815682448E+01  3.363903503E+02
1.817156527E+01  3.357134399E+02
1.818630607E+01  3.371224976E+02
1.820104686E+01  3.406572571E+02
1.821578765E+01  3.410576477E+02
1.823052844E+01  3.379151917E+02
1.824526923E+01  3.384598694E+02
1.826001003E+01  3.373823547E+02
1.827475082E+01  3.366856384E+02
1.828949161E+01  3.366643677E+02
1.830423240E+01  3.369519958E+02
1.831897319E+01  3.367423706E+02
1.833371399E+01  3.376719666E+02
1.834845478E+01  3.380558777E+02
1.836319557E+01  3.388775330E+02
1.837793636E+01  3.397941284E+02
1.839267716E+01  3.407783813E+02
1.840741795E+01  3.411542664E+02
1.842215874E+01  3.412283936E+02
1.843689953E+01  3.419012146E+02
1.845164032E+01  3.422043152E+02
1.846638112E+01  3.425735168E+02
1.848112191E+01  3.422794189E+02
1.849586270E+01  3.417371521E+02
1.851060349E+01  3.400776367E+02
1.852534428E+01  3.392800293E+02
1.854008508E+01  3.387193604E+02
1.855482587E+01  3.379627075E+02
1.856956666E+01  3.371746216E+02
1.858430745E+01  3.366073914E+02
1.859904824E+01  3.363522949E+02
1.861378904E+01  3.352935486E+02
1.862852983E+01  3.343688049E+02
1.864327062E+01  3.342490234E+02
1.865801141E+01  3.346062012E+02
1.867275221E+01  3.338856506E+02
1.868749300E+01  3.334311829E+02
1.870223379E+01  3.323516846E+02
1.871697458E+01  3.317437744E+02
1.873171537E+01  3.313728333E+02
1.874645617E+01  3.308041382E+02
1.876119696E+01  3.305687256E+02
1.877593775E+01  3.301593628E+02
1.879067854E+01  3.298964233E+02
1.880541933E+01  3.295958252E+02
1.882016013E+01  3.296894836E+02
1.883490092E+01  3.297052917E+02
1.884964171E+01  3.298476868E+02
1.886438250E+01  3.289854431E+02
1.887912329E+01  3.282665100E+02
1.889386409E+01  3.290590210E+02
1.890860488E+01  3.303195801E+02
1.892334567E+01  3.313244934E+02
1.893808646E+01  3.310763245E+02
1.895282726E+01  3.311910400E+02
1.896756805E+01  3.310797729E+02
1.898230884E+01  3.308467407E+02
1.899704963E+01  3.300738831E+02
1.901179042E+01  3.301507874E+02
1.902653122E+01  3.291663208E+02
1.904127201E+01  3.289252930E+02
1.905601280E+01  3.286228943E+02
1.907075359E+01  3.282288208E+02
1.908549438E+01  3.280711365E+02
1.910023518E+01  3.296018066E+02
1.911497597E+01  3.302570801E+02
1.912971676E+01  3.304127808E+02
1.914445755E+01  3.295476990E+02
1.915919834E+01  3.292081604E+02
1.917393914E+01  3.292175903E+02
1.918867993E+01  3.297421570E+02
1.920342072E+01  3.298256531E+02
1.921816151E+01  3.288529663E+02
1.923290231E+01  3.287092590E+02
1.924764310E+01  3.285905457E+02
1.926238389E+01  3.290150146E+02
1.927712468E+01  3.291840210E+02
1.929186547E+01  3.295308533E+02
1.930660627E+01  3.289948425E+02
1.932134706E+01  3.282995911E+02
1.933608785E+01  3.288155212E+02
1.935082864E+01  3.284885559E+02
1.936556943E+01  3.285057983E+02
1.938031023E+01  3.286450195E+02
1.939505102E+01  3.291841431E+02
1.940979181E+01  3.306915894E+02
1.942453260E+01  3.319631653E+02
1.943927340E+01  3.322154846E+02
1.945401419E+01  3.310791321E+02
1.946875498E+01  3.303273010E+02
1.948349577E+01  3.303309937E+02
1.949823656E+01  3.302330933E+02
1.951297736E+01  3.294037170E+02
1.952771815E+01  3.298375854E+02
1.954245894E+01  3.298554077E+02
1.955719973E+01  3.294890747E+02
1.957194052E+01  3.290363464E+02
1.958668132E+01  3.290006104E+02
1.960142211E+01  3.292139587E+02
1.961616290E+01  3.291753845E+02
1.963090369E+01  3.295443420E+02
1.964564448E+01  3.289974670E+02
1.966038528E+01  3.296770935E+02
1.967512607E+01  3.298641357E+02
1.968986686E+01  3.294288635E+02
1.970460765E+01  3.288833008E+02
1.971934845E+01  3.292232361E+02
1.973408924E+01  3.299370728E+02
1.974883003E+01  3.304303894E+02
1.976357082E+01  3.306034241E+02
1.977831161E+01  3.297562256E+02
1.979305241E+01  3.297611389E+02
1.980779320E+01  3.308274841E+02
1.982253399E+01  3.315786133E+02
1.983727478E+01  3.316522827E+02
1.985201557E+01  3.315552979E+02
1.986675637E+01  3.319714050E+02
1.988149716E+01  3.328795166E+02
1.989623795E+01  3.341527100E+02
1.991097874E+01  3.347778015E+02
1.992571953E+01  3.348386536E+02
1.994046033E+01  3.352276917E+02
1.995520112E+01  3.354677734E+02
1.996994191E+01  3.358063354E+02
1.998468270E+01  3.363125305E+02
1.999942350E+01  3.371789551E+02
2.001416429E+01  3.371235657E+02
2.002890508E+01  3.368806152E+02
2.004364587E+01  3.368755188E+02
2.005838666E+01  3.369656067E+02
2.007312746E+01  3.377583313E+02
2.008786825E+01  3.389894104E+02
2.010260904E+01  3.402424927E+02
2.011734983E+01  3.406791687E+02
2.013209062E+01  3.412896729E+02
2.014683142E+01  3.412515564E+02
2.016157221E+01  3.425905457E+02
2.017631300E+01  3.447356873E+02
2.019105379E+01  3.478408203E+02
2.020579458E+01  3.510384827E+02
2.022053538E+01  3.550895081E+02
2.023527617E+01  3.601692810E+02
2.025001696E+01  3.652521057E+02
2.026475775E+01  3.707683105E+02
2.027949855E+01  3.761471863E+02
2.029423934E+01  3.807580872E+02
2.030898013E+01  3.843324280E+02
2.032372092E+01  3.883076172E+02
2.033846171E+01  3.909439392E+02
2.035320251E+01  3.907782288E+02
2.036794330E+01  3.877635193E+02
2.038268409E+01  3.835480042E+02
2.039742488E+01  3.784501038E+02
2.041216567E+01  3.731239319E+02
2.042690647E+01  3.668282471E+02
2.044164726E+01  3.608322449E+02
2.045638805E+01  3.560739746E+02
2.047112884E+01  3.514109497E+02
2.048586964E+01  3.484471130E+02
2.050061043E+01  3.457983704E+02
2.051535122E+01  3.436940613E+02
2.053009201E+01  3.413769226E+02
2.054483280E+01  3.403695374E+02
2.055957360E+01  3.391664124E+02
2.057431439E+01  3.378756104E+02
2.058905518E+01  3.368202209E+02
2.060379597E+01  3.365050049E+02
2.061853676E+01  3.360793152E+02
2.063327756E+01  3.345233459E+02
2.064801835E+01  3.337420349E+02
2.066275914E+01  3.335493469E+02
2.067749993E+01  3.338111267E+02
2.069224072E+01  3.333656006E+02
2.070698152E+01  3.327763672E+02
2.072172231E+01  3.322252197E+02
2.073646310E+01  3.318125000E+02
2.075120389E+01  3.314361572E+02
2.076594469E+01  3.308273315E+02
2.078068548E+01  3.306269836E+02
2.079542627E+01  3.305452881E+02
2.081016706E+01  3.305509338E+02
2.082490785E+01  3.302169800E+02
2.083964865E+01  3.294500427E+02
2.085438944E+01  3.293891296E+02
2.086913023E+01  3.296707458E+02
2.088387102E+01  3.297025146E+02
2.089861181E+01  3.284976196E+02
2.091335261E+01  3.290769653E+02
2.092809340E+01  3.297998962E+02
2.094283419E+01  3.296365051E+02
2.095757498E+01  3.291614380E+02
2.097231577E+01  3.278168640E+02
2.098705657E+01  3.279338379E+02
2.100179736E+01  3.282182922E+02
2.101653815E+01  3.291946716E+02
2.103127894E+01  3.297981873E+02
2.104601974E+01  3.295696411E+02
2.106076053E+01  3.291172180E+02
2.107550132E+01  3.281581116E+02
2.109024211E+01  3.288628845E+02
2.110498290E+01  3.299928894E+02
2.111972370E+01  3.302925720E+02
2.113446449E+01  3.296256104E+02
2.114920528E+01  3.297886963E+02
2.116394607E+01  3.303428955E+02
2.117868686E+01  3.303609009E+02
2.119342766E+01  3.294420471E+02
2.120816845E+01  3.292941895E+02
2.122290924E+01  3.292780457E+02
2.123765003E+01  3.296707764E+02
2.125239082E+01  3.306264954E+02
2.126713162E+01  3.315998535E+02
2.128187241E+01  3.322661133E+02
2.129661320E+01  3.318731079E+02
2.131135399E+01  3.322095642E+02
2.132609479E+01  3.326694946E+02
2.134083558E+01  3.327700500E+02
2.135557637E+01  3.331754761E+02
2.137031716E+01  3.331163330E+02
2.138505795E+01  3.336575317E+02
2.139979875E+01  3.326235352E+02
2.141453954E+01  3.331378784E+02
2.142928033E+01  3.342348938E+02
2.144402112E+01  3.350220032E+02
2.145876191E+01  3.348829956E+02
2.147350271E+01  3.346288757E+02
2.148824350E+01  3.343811340E+02
2.150298429E+01  3.338962097E+02
2.151772508E+01  3.333398438E+02
2.153246588E+01  3.333046570E+02
2.154720667E+01  3.325480957E+02
2.156194746E+01  3.323609314E+02
2.157668825E+01  3.322188721E+02
2.159142904E+01  3.320840149E+02
2.160616984E+01  3.318436279E+02
2.162091063E+01  3.315204163E+02
2.163565142E+01  3.309518127E+02
2.165039221E+01  3.302547913E+02
2.166513300E+01  3.301242981E+02
2.167987380E+01  3.301111755E+02
2.169461459E+01  3.305729065E+02
2.170935538E+01  3.308761902E+02
2.172409617E+01  3.316173706E+02
2.173883696E+01  3.317761536E+02
2.175357776E+01  3.303543091E+02
2.176831855E+01  3.294947510E+02
2.178305934E+01  3.302802734E+02
2.179780013E+01  3.311766663E+02
2.181254093E+01  3.318965759E+02
2.182728172E+01  3.318507385E+02
2.184202251E+01  3.325071106E+02
2.185676330E+01  3.331484375E+02
2.187150409E+01  3.331461487E+02
2.188624489E+01  3.323830261E+02
2.190098568E+01  3.320057068E+02
2.191572647E+01  3.323326721E+02
2.193046726E+01  3.334118042E+02
2.194520805E+01  3.359835510E+02
2.195994885E+01  3.375169373E+02
2.197468964E+01  3.377191467E+02
2.198943043E+01  3.375659485E+02
2.200417122E+01  3.383401184E+02
2.201891201E+01  3.390209045E+02
2.203365281E+01  3.391572571E+02
2.204839360E+01  3.389623413E+02
2.206313439E+01  3.394915161E+02
2.207787518E+01  3.414858398E+02
2.209261598E+01  3.424175415E+02
2.210735677E+01  3.438573608E+02
2.212209756E+01  3.447817078E+02
2.213683835E+01  3.453287659E+02
2.215157914E+01  3.450900879E+02
2.216631994E+01  3.459778748E+02
2.218106073E+01  3.499506226E+02
2.219580152E+01  3.536080627E+02
2.221054231E+01  3.557113953E+02
2.222528310E+01  3.582646790E+02
2.224002390E+01  3.608200989E+02
2.225476469E+01  3.631170959E+02
2.226950548E+01  3.627876282E+02
2.228424627E+01  3.621072693E+02
2.229898706E+01  3.619891052E+02
2.231372786E+01  3.610826721E+02
2.232846865E+01  3.603026123E+02
2.234320944E+01  3.581165466E+02
2.235795023E+01  3.563558044E+02
2.237269103E+01  3.544638977E+02
2.238743182E+01  3.528559875E+02
2.240217261E+01  3.510425720E+02
2.241691340E+01  3.492183533E+02
2.243165419E+01  3.472727051E+02
2.244639499E+01  3.472089539E+02
2.246113578E+01  3.459529724E+02
2.247587657E+01  3.455369873E+02
2.249061736E+01  3.452050476E+02
2.250535815E+01  3.445054016E+02
2.252009895E+01  3.438049011E+02
2.253483974E+01  3.447310486E+02
2.254958053E+01  3.460531311E+02
2.256432132E+01  3.455119324E+02
2.257906212E+01  3.452674561E+02
2.259380291E+01  3.457922974E+02
2.260854370E+01  3.456192627E+02
2.262328449E+01  3.451233215E+02
2.263802528E+01  3.452243652E+02
2.265276608E+01  3.458180542E+02
2.266750687E+01  3.464375000E+02
2.268224766E+01  3.469888306E+02
2.269698845E+01  3.472616882E+02
2.271172924E+01  3.468551636E+02
2.272647004E+01  3.478104248E+02
2.274121083E+01  3.489833679E+02
2.275595162E+01  3.495606995E+02
2.277069241E+01  3.494950256E+02
2.278543320E+01  3.486604919E+02
2.280017400E+01  3.482029724E+02
2.281491479E+01  3.485388184E+02
2.282965558E+01  3.509694214E+02
2.284439637E+01  3.535767517E+02
2.285913717E+01  3.567217102E+02
2.287387796E+01  3.584957886E+02
2.288861875E+01  3.609508057E+02
2.290335954E+01  3.622664490E+02
2.291810033E+01  3.673743286E+02
2.293284113E+01  3.706520691E+02
2.294758192E+01  3.740723267E+02
2.296232271E+01  3.764614563E+02
2.297706350E+01  3.799990845E+02
2.299180429E+01  3.828006897E+02
2.300654509E+01  3.840844727E+02
2.302128588E+01  3.824659729E+02
2.303602667E+01  3.793724365E+02
2.305076746E+01  3.761060486E+02
2.306550825E+01  3.727774658E+02
2.308024905E+01  3.698876343E+02
2.309498984E+01  3.685674438E+02
2.310973063E+01  3.673663635E+02
2.312447142E+01  3.654900513E+02
2.313921222E+01  3.636317444E+02
2.315395301E+01  3.633630676E+02
2.316869380E+01  3.622578735E+02
2.318343459E+01  3.609658203E+02
2.319817538E+01  3.589014587E+02
2.321291618E+01  3.575737610E+02
2.322765697E+01  3.557817993E+02
2.324239776E+01  3.551516724E+02
2.325713855E+01  3.545616150E+02
2.327187934E+01  3.540401001E+02
2.328662014E+01  3.527926331E+02
2.330136093E+01  3.526032715E+02
2.331610172E+01  3.529884644E+02
2.333084251E+01  3.532516174E+02
2.334558330E+01  3.534078674E+02
2.336032410E+01  3.538295288E+02
2.337506489E+01  3.537927551E+02
2.338980568E+01  3.539019470E+02
2.340454647E+01  3.540543213E+02
2.341928727E+01  3.544338989E+02
2.343402806E+01  3.553751831E+02
2.344876885E+01  3.571491699E+02
2.346350964E+01  3.579985046E+02
2.347825043E+01  3.576180115E+02
2.349299123E+01  3.565029297E+02
2.350773202E+01  3.570027771E+02
2.352247281E+01  3.572928162E+02
2.353721360E+01  3.564840088E+02
2.355195439E+01  3.565280762E+02
2.356669519E+01  3.565469360E+02
2.358143598E+01  3.557757263E+02
2.359617677E+01  3.540496521E+02
2.361091756E+01  3.511053772E+02
2.362565836E+01  3.496052856E+02
2.364039915E+01  3.496305237E+02
2.365513994E+01  3.501961060E+02
2.366988073E+01  3.507640686E+02
2.368462152E+01  3.492807312E+02
2.369936232E+01  3.486955261E+02
2.371410311E+01  3.471237488E+02
2.372884390E+01  3.464038391E+02
2.374358469E+01  3.463923340E+02
2.375832548E+01  3.471059570E+02
2.377306628E+01  3.471529541E+02
2.378780707E+01  3.476228027E+02
2.380254786E+01  3.464755859E+02
2.381728865E+01  3.454479675E+02
2.383202944E+01  3.461343689E+02
2.384677024E+01  3.470400696E+02
2.386151103E+01  3.473898926E+02
2.387625182E+01  3.486423340E+02
2.389099261E+01  3.506762390E+02
2.390573341E+01  3.518117065E+02
2.392047420E+01  3.511149902E+02
2.393521499E+01  3.523921204E+02
2.394995578E+01  3.536390076E+02
2.396469657E+01  3.561572266E+02
2.397943737E+01  3.575532227E+02
2.399417816E+01  3.572079468E+02
2.400891895E+01  3.562908630E+02
2.402365974E+01  3.563476257E+02
2.403840053E+01  3.565952454E+02
2.405314133E+01  3.556045532E+02
2.406788212E+01  3.540765991E+02
2.408262291E+01  3.531152954E+02
2.409736370E+01  3.520166016E+02
2.411210449E+01  3.518396912E+02
2.412684529E+01  3.522047424E+02
2.414158608E+01  3.516196289E+02
2.415632687E+01  3.507951050E+02
2.417106766E+01  3.499576111E+02
2.418580846E+01  3.491529236E+02
2.420054925E+01  3.498961792E+02
2.421529004E+01  3.512827148E+02
2.423003083E+01  3.527314453E+02
2.424477162E+01  3.549182434E+02
2.425951242E+01  3.566721802E+02
2.427425321E+01  3.583797607E+02
2.428899400E+01  3.591507874E+02
2.430373479E+01  3.608480225E+02
2.431847558E+01  3.628186951E+02
2.433321638E+01  3.658123169E+02
2.434795717E+01  3.682397461E+02
2.436269796E+01  3.692253418E+02
2.437743875E+01  3.704981995E+02
2.439217954E+01  3.699814453E+02
2.440692034E+01  3.686144714E+02
2.442166113E+01  3.664759216E+02
2.443640192E+01  3.633750000E+02
2.445114271E+01  3.605653687E+02
2.446588351E+01  3.575260315E+02
2.448062430E+01  3.562051392E+02
2.449536509E+01  3.542441406E+02
2.451010588E+01  3.525679016E+02
2.452484667E+01  3.494448547E+02
2.453958747E+01  3.469003906E+02
2.455432826E+01  3.459914856E+02
2.456906905E+01  3.462187195E+02
2.458380984E+01  3.451091919E+02
2.459855063E+01  3.440267029E+02
2.461329143E+01  3.433343201E+02
2.462803222E+01  3.431565857E+02
2.464277301E+01  3.421721497E+02
2.465751380E+01  3.417090454E+02
2.467225460E+01  3.410436707E+02
2.468699539E+01  3.413610535E+02
2.470173618E+01  3.408596497E+02
2.471647697E+01  3.407962036E+02
2.473121776E+01  3.408375244E+02
2.474595856E+01  3.407726746E+02
2.476069935E+01  3.404563599E+02
2.477544014E+01  3.404380798E+02
2.479018093E+01  3.411900330E+02
2.480492172E+01  3.421637878E+02
2.481966252E+01  3.424606323E+02
2.483440331E+01  3.431588745E+02
2.484914410E+01  3.441538696E+02
2.486388489E+01  3.444418945E+02
2.487862568E+01  3.442183533E+02
2.489336648E+01  3.436359863E+02
2.490810727E+01  3.433645935E+02
2.492284806E+01  3.442064209E+02
2.493758885E+01  3.448729858E+02
2.495232965E+01  3.459666748E+02
2.496707044E+01  3.482581482E+02
2.498181123E+01  3.485441895E+02
2.499655202E+01  3.484967346E+02
2.501129281E+01  3.489847717E+02
2.502603361E+01  3.508935852E+02
2.504077440E+01  3.518189697E+02
2.505551519E+01  3.534728394E+02
2.507025598E+01  3.565600891E+02
2.508499677E+01  3.584445801E+02
2.509973757E+01  3.601305542E+02
2.511447836E+01  3.618614807E+02
2.512921915E+01  3.650299377E+02
2.514395994E+01  3.668351135E+02
2.515870073E+01  3.692707825E+02
2.517344153E+01  3.703907471E+02
2.518818232E+01  3.725796204E+02
2.520292311E+01  3.734143677E+02
2.521766390E+01  3.734436340E+02
2.523240470E+01  3.736276550E+02
2.524714549E+01  3.738595276E+02
2.526188628E+01  3.723918762E+02
2.527662707E+01  3.706075745E+02
2.529136786E+01  3.680947266E+02
2.530610866E+01  3.663465881E+02
2.532084945E+01  3.649132385E+02
2.533559024E+01  3.628358459E+02
2.535033103E+01  3.616656799E+02
2.536507182E+01  3.604666443E+02
2.537981262E+01  3.595331116E+02
2.539455341E+01  3.579496765E+02
2.540929420E+01  3.580223083E+02
2.542403499E+01  3.583866882E+02
2.543877578E+01  3.597535400E+02
2.545351658E+01  3.591610718E+02
2.546825737E+01  3.606058350E+02
2.548299816E+01  3.611264954E+02
2.549773895E+01  3.602010193E+02
2.551247975E+01  3.574276428E+02
2.552722054E+01  3.562443542E+02
2.554196133E+01  3.565567627E+02
2.555670212E+01  3.565517578E+02
2.557144291E+01  3.541619568E+02
2.558618371E+01  3.519348450E+02
2.560092450E+01  3.518500061E+02
2.561566529E+01  3.525530396E+02
2.563040608E+01  3.518609009E+02
2.564514687E+01  3.506452026E+02
2.565988767E+01  3.490898438E+02
2.567462846E+01  3.480236511E+02
2.568936925E+01  3.473077087E+02
2.570411004E+01  3.463361816E+02
2.571885084E+01  3.453480530E+02
2.573359163E+01  3.447383118E+02
2.574833242E+01  3.447953796E+02
2.576307321E+01  3.446672974E+02
2.577781400E+01  3.445194702E+02
2.579255480E+01  3.434553223E+02
2.580729559E+01  3.422487183E+02
2.582203638E+01  3.417461243E+02
2.583677717E+01  3.411103516E+02
2.585151796E+01  3.404211426E+02
2.586625876E+01  3.403717041E+02
2.588099955E+01  3.415231628E+02
2.589574034E+01  3.423179932E+02
2.591048113E+01  3.424447632E+02
2.592522192E+01  3.416298828E+02
2.593996272E+01  3.418530884E+02
2.595470351E+01  3.426028442E+02
2.596944430E+01  3.416835938E+02
2.598418509E+01  3.406456909E+02
2.599892589E+01  3.410271912E+02
2.601366668E+01  3.403959351E+02
2.602840747E+01  3.399096680E+02
2.604314826E+01  3.403197632E+02
2.605788905E+01  3.401848755E+02
2.607262985E+01  3.398065186E+02
2.608737064E+01  3.390173645E+02
2.610211143E+01  3.387099609E+02
2.611685222E+01  3.395069885E+02
2.613159301E+01  3.404210510E+02
2.614633381E+01  3.408846741E+02
2.616107460E+01  3.415116882E+02
2.617581539E+01  3.425163574E+02
2.619055618E+01  3.416481018E+02
2.620529697E+01  3.406657104E+02
2.622003777E+01  3.399668274E+02
2.623477856E+01  3.391769104E+02
2.624951935E+01  3.402257996E+02
2.626426014E+01  3.410334167E+02
2.627900094E+01  3.418239136E+02
2.629374173E+01  3.408881531E+02
2.630848252E+01  3.412161865E+02
2.632322331E+01  3.423810730E+02
2.633796410E+01  3.424333191E+02
2.635270490E+01  3.413262024E+02
2.636744569E+01  3.401382446E+02
2.638218648E+01  3.411812439E+02
2.639692727E+01  3.410481567E+02
2.641166806E+01  3.406807251E+02
2.642640886E+01  3.407127075E+02
2.644114965E+01  3.418696289E+02
2.645589044E+01  3.430492859E+02
2.647063123E+01  3.438476562E+02
2.648537202E+01  3.439757385E+02
2.650011282E+01  3.430733337E+02
2.651485361E+01  3.429754944E+02
2.652959440E+01  3.426653442E+02
2.654433519E+01  3.434720459E+02
2.655907599E+01  3.450650330E+02
2.657381678E+01  3.449197388E+02
2.658855757E+01  3.438196106E+02
2.660329836E+01  3.439572754E+02
2.661803915E+01  3.445638123E+02
2.663277995E+01  3.429103088E+02
2.664752074E+01  3.401594543E+02
2.666226153E+01  3.384534302E+02
2.667700232E+01  3.395669861E+02
2.669174311E+01  3.397407532E+02
2.670648391E+01  3.386601562E+02
2.672122470E+01  3.383341064E+02
2.673596549E+01  3.393052673E+02
2.675070628E+01  3.401538696E+02
2.676544707E+01  3.402779236E+02
2.678018787E+01  3.395680237E+02
2.679492866E+01  3.394350281E+02
2.680966945E+01  3.392363586E+02
2.682441024E+01  3.381715698E+02
2.683915104E+01  3.366925049E+02
2.685389183E+01  3.370728455E+02
2.686863262E+01  3.387944031E+02
2.688337341E+01  3.400619507E+02
2.689811420E+01  3.407592468E+02
2.691285500E+01  3.413133850E+02
2.692759579E+01  3.396621704E+02
2.694233658E+01  3.391129150E+02
2.695707737E+01  3.380279846E+02
2.697181816E+01  3.362338867E+02
2.698655896E+01  3.356593323E+02
2.700129975E+01  3.361945801E+02
2.701604054E+01  3.378172302E+02
2.703078133E+01  3.383261414E+02
2.704552213E+01  3.373471680E+02
2.706026292E+01  3.371819153E+02
2.707500371E+01  3.382494507E+02
2.708974450E+01  3.406326294E+02
2.710448529E+01  3.438891907E+02
2.711922609E+01  3.451862183E+02
2.713396688E+01  3.445877686E+02
2.714870767E+01  3.446968384E+02
2.716344846E+01  3.441921692E+02
2.717818925E+01  3.441463013E+02
2.719293005E+01  3.438027039E+02
2.720767084E+01  3.426604919E+02
2.722241163E+01  3.401144714E+02
2.723715242E+01  3.389832458E+02
2.725189321E+01  3.395584412E+02
2.726663401E+01  3.398996887E+02
2.728137480E+01  3.396976318E+02
2.729611559E+01  3.394742737E+02
2.731085638E+01  3.388688965E+02
2.732559718E+01  3.390324402E+02
2.734033797E+01  3.384413452E+02
2.735507876E+01  3.378070374E+02
2.736981955E+01  3.373496704E+02
2.738456034E+01  3.368166809E+02
2.739930114E+01  3.363238831E+02
2.741404193E+01  3.361093445E+02
2.742878272E+01  3.363238220E+02
2.744352351E+01  3.359324646E+02
2.745826430E+01  3.358718262E+02
2.747300510E+01  3.347725525E+02
2.748774589E+01  3.335830994E+02
2.750248668E+01  3.346860046E+02
2.751722747E+01  3.349549561E+02
2.753196826E+01  3.338775635E+02
2.754670906E+01  3.331416931E+02
2.756144985E+01  3.333476868E+02
2.757619064E+01  3.342811890E+02
2.759093143E+01  3.346964722E+02
2.760567223E+01  3.349190063E+02
2.762041302E+01  3.354649658E+02
2.763515381E+01  3.349101562E+02
2.764989460E+01  3.349722900E+02
2.766463539E+01  3.348634644E+02
2.767937619E+01  3.339885559E+02
2.769411698E+01  3.341432800E+02
2.770885777E+01  3.335570679E+02
2.772359856E+01  3.337530823E+02
2.773833935E+01  3.341246033E+02
2.775308015E+01  3.342837524E+02
2.776782094E+01  3.329331970E+02
2.778256173E+01  3.324413757E+02
2.779730252E+01  3.336481628E+02
2.781204331E+01  3.342680054E+02
2.782678411E+01  3.345412903E+02
2.784152490E+01  3.332167053E+02
2.785626569E+01  3.333067322E+02
2.787100648E+01  3.347691040E+02
2.788574728E+01  3.372045898E+02
2.790048807E+01  3.365862427E+02
2.791522886E+01  3.361006775E+02
2.792996965E+01  3.360707092E+02
2.794471044E+01  3.362894897E+02
2.795945124E+01  3.354222717E+02
2.797419203E+01  3.355539246E+02
2.798893282E+01  3.357472534E+02
2.800367361E+01  3.354362793E+02
2.801841440E+01  3.347193909E+02
2.803315520E+01  3.337300110E+02
2.804789599E+01  3.333985291E+02
2.806263678E+01  3.332723083E+02
2.807737757E+01  3.328179626E+02
2.809211837E+01  3.325321960E+02
2.810685916E+01  3.334533997E+02
2.812159995E+01  3.338021851E+02
2.813634074E+01  3.331278076E+02
2.815108153E+01  3.306618042E+02
2.816582233E+01  3.286609192E+02
2.818056312E+01  3.281504517E+02
2.819530391E+01  3.287311401E+02
2.821004470E+01  3.287998657E+02
2.822478549E+01  3.277477722E+02
2.823952629E+01  3.268919983E+02
2.825426708E+01  3.272353516E+02
2.826900787E+01  3.269418335E+02
2.828374866E+01  3.269933167E+02
2.829848945E+01  3.283112793E+02
2.831323025E+01  3.288477478E+02
2.832797104E+01  3.273391418E+02
2.834271183E+01  3.256835022E+02
2.835745262E+01  3.258093567E+02
2.837219342E+01  3.268537292E+02
2.838693421E+01  3.268688660E+02
2.840167500E+01  3.257349854E+02
2.841641579E+01  3.257986755E+02
2.843115658E+01  3.263345032E+02
2.844589738E+01  3.261200256E+02
2.846063817E+01  3.253807678E+02
2.847537896E+01  3.247671814E+02
2.849011975E+01  3.252510071E+02
2.850486054E+01  3.259428101E+02
2.851960134E+01  3.261697998E+02
2.853434213E+01  3.253616638E+02
2.854908292E+01  3.244652100E+02
2.856382371E+01  3.238353882E+02
2.857856450E+01  3.238907776E+02
2.859330530E+01  3.237340393E+02
2.860804609E+01  3.247295532E+02
2.862278688E+01  3.255903625E+02
2.863752767E+01  3.259959412E+02
2.865226847E+01  3.252213135E+02
2.866700926E+01  3.259904480E+02
2.868175005E+01  3.261262207E+02
2.869649084E+01  3.252490845E+02
2.871123163E+01  3.250267639E+02
2.872597243E+01  3.259372864E+02
2.874071322E+01  3.261414795E+02
2.875545401E+01  3.266311646E+02
2.877019480E+01  3.258870239E+02
2.878493559E+01  3.259567261E+02
2.879967639E+01  3.267079468E+02
2.881441718E+01  3.267861938E+02
2.882915797E+01  3.260080566E+02
2.884389876E+01  3.259794617E+02
2.885863955E+01  3.262421265E+02
2.887338035E+01  3.255307312E+02
2.888812114E+01  3.245952148E+02
2.890286193E+01  3.242547913E+02
2.891760272E+01  3.254091187E+02
2.893234352E+01  3.257796021E+02
2.894708431E+01  3.253116760E+02
2.896182510E+01  3.255573730E+02
2.897656589E+01  3.254528503E+02
2.899130668E+01  3.247581177E+02
2.900604748E+01  3.244415588E+02
2.902078827E+01  3.243448486E+02
2.903552906E+01  3.244993896E+02
2.905026985E+01  3.252569885E+02
2.906501064E+01  3.250094604E+02
2.907975144E+01  3.244587097E+02
2.909449223E+01  3.249093323E+02
2.910923302E+01  3.271087646E+02
2.912397381E+01  3.281283875E+02
2.913871461E+01  3.281254578E+02
2.915345540E+01  3.301994019E+02
2.916819619E+01  3.315883179E+02
2.918293698E+01  3.307486877E+02
2.919767777E+01  3.309449158E+02
2.921241857E+01  3.313772278E+02
2.922715936E+01  3.314119568E+02
2.924190015E+01  3.320526428E+02
2.925664094E+01  3.322954407E+02
2.927138173E+01  3.318345642E+02
2.928612253E+01  3.310802002E+02
2.930086332E+01  3.306531677E+02
2.931560411E+01  3.300804443E+02
2.933034490E+01  3.290780334E+02
2.934508569E+01  3.282085571E+02
2.935982649E+01  3.264741211E+02
2.937456728E+01  3.266832886E+02
2.938930807E+01  3.266088562E+02
2.940404886E+01  3.256401978E+02
2.941878966E+01  3.252037964E+02
2.943353045E+01  3.262141113E+02
2.944827124E+01  3.270562439E+02
2.946301203E+01  3.262947388E+02
2.947775282E+01  3.251911621E+02
2.949249362E+01  3.244287415E+02
2.950723441E+01  3.247768860E+02
2.952197520E+01  3.254455872E+02
2.953671599E+01  3.252504578E+02
2.955145678E+01  3.240148315E+02
2.956619758E+01  3.227598877E+02
2.958093837E+01  3.227836304E+02
2.959567916E+01  3.230758972E+02
2.961041995E+01  3.218166504E+02
2.962516074E+01  3.214068298E+02
2.963990154E+01  3.212839355E+02
2.965464233E+01  3.212717896E+02
2.966938312E+01  3.221660767E+02
2.968412391E+01  3.225083618E+02
2.969886471E+01  3.212124939E+02
2.971360550E+01  3.202651672E+02
2.972834629E+01  3.196856689E+02
2.974308708E+01  3.188710938E+02
2.975782787E+01  3.170403137E+02
2.977256867E+01  3.162636414E+02
2.978730946E+01  3.156940613E+02
2.980205025E+01  3.154978638E+02
2.981679104E+01  3.152816467E+02
2.983153183E+01  3.144284668E+02
2.984627263E+01  3.135753479E+02
2.986101342E+01  3.131127014E+02
2.987575421E+01  3.117425842E+02
2.989049500E+01  3.102370605E+02
2.990523579E+01  3.087454529E+02
2.991997659E+01  3.074516602E+02
2.993471738E+01  3.058848877E+02
2.994945817E+01  3.053317566E+02
2.996419896E+01  3.044093628E+02
2.997893976E+01  3.031842957E+02
2.999368055E+01  3.014476318E+02
3.000842134E+01  2.994193726E+02
3.002316213E+01  2.961773376E+02
3.003790292E+01  2.943147278E+02
3.005264372E+01  2.927622986E+02
3.006738451E+01  2.902303162E+02
3.008212530E+01  2.877910461E+02
3.009686609E+01  2.860433655E+02
3.011160688E+01  2.861962891E+02
3.012634768E+01  2.855479736E+02
3.014108847E+01  2.827439880E+02
3.015582926E+01  2.799692993E+02
3.017057005E+01  2.776258850E+02
3.018531085E+01  2.742673645E+02
3.020005164E+01  2.709515686E+02
3.021479243E+01  2.676589355E+02
3.022953322E+01  2.639396057E+02
3.024427401E+01  2.605079956E+02
3.025901481E+01  2.556424408E+02
3.027375560E+01  2.532570190E+02
3.028849639E+01  2.508452301E+02
3.030323718E+01  2.486900330E+02
3.031797797E+01  2.466934662E+02
3.033271877E+01  2.464312134E+02
3.034745956E+01  2.453967743E+02
3.036220035E+01  2.430237732E+02
3.037694114E+01  2.402686615E+02
3.039168193E+01  2.386869049E+02
3.040642273E+01  2.384047394E+02
3.042116352E+01  2.381828156E+02
3.043590431E+01  2.369446259E+02
3.045064510E+01  2.348671417E+02
3.046538590E+01  2.335379944E+02
3.048012669E+01  2.320144196E+02
3.049486748E+01  2.294726105E+02
3.050960827E+01  2.272467041E+02
3.052434906E+01  2.256163940E+02
3.053908986E+01  2.237258911E+02
3.055383065E+01  2.225744019E+02
3.056857144E+01  2.213404388E+02
3.058331223E+01  2.195699921E+02
3.059805302E+01  2.181603546E+02
3.061279382E+01  2.168643646E+02
3.062753461E+01  2.147337189E+02
3.064227540E+01  2.121953430E+02
3.065701619E+01  2.108598175E+02
3.067175698E+01  2.098728943E+02
3.068649778E+01  2.078578949E+02
3.070123857E+01  2.049959564E+02
3.071597936E+01  2.028928528E+02
3.073072015E+01  2.006726532E+02
3.074546095E+01  1.996007538E+02
3.076020174E+01  1.976419830E+02
3.077494253E+01  1.956357269E+02
3.078968332E+01  1.943761444E+02
3.080442411E+01  1.935896759E+02
3.081916491E+01  1.916809082E+02
3.083390570E+01  1.894392090E+02
3.084864649E+01  1.873473206E+02
3.086338728E+01  1.858159485E+02
3.087812807E+01  1.834332275E+02
3.089286887E+01  1.807400208E+02
3.090760966E+01  1.788371887E+02
3.092235045E+01  1.766699371E+02
3.093709124E+01  1.760139923E+02
3.095183203E+01  1.739823456E+02
3.096657283E+01  1.719259186E+02
3.098131362E+01  1.693875122E+02
3.099605441E+01  1.681505737E+02
3.101079520E+01  1.673521271E+02
3.102553600E+01  1.656964874E+02
3.104027679E+01  1.634832916E+02
3.105501758E+01  1.616603546E+02
3.106975837E+01  1.601968079E+02
3.108449916E+01  1.583243866E+02
3.109923996E+01  1.566995697E+02
3.111398075E+01  1.546455078E+02
3.112872154E+01  1.526938324E+02
3.114346233E+01  1.503735199E+02
3.115820312E+01  1.489277954E+02
3.117294392E+01  1.473848419E+02
3.118768471E+01  1.463495941E+02
3.120242550E+01  1.448117371E+02
3.121716629E+01  1.430623322E+02
3.123190709E+01  1.409855499E+02
3.124664788E+01  1.396966248E+02
3.126138867E+01  1.376739044E+02
3.127612946E+01  1.356415863E+02
3.129087025E+01  1.335013885E+02
3.130561105E+01  1.314638824E+02
3.132035184E+01  1.304473724E+02
3.133509263E+01  1.291390076E+02
3.134983342E+01  1.278261795E+02
3.136457421E+01  1.263439636E+02
3.137931501E+01  1.244148331E+02
3.139405580E+01  1.219647217E+02
3.140879659E+01  1.207437668E+02
3.142353738E+01  1.191518021E+02
3.143827817E+01  1.168772430E+02
3.145301897E+01  1.150513153E+02
3.146775976E+01  1.134028015E+02
3.148250055E+01  1.126156616E+02
3.149724134E+01  1.109934464E+02
3.151198214E+01  1.089998016E+02
3.152672293E+01  1.072392273E+02
3.154146372E+01  1.051453552E+02
3.155620451E+01  1.032746887E+02
3.157094530E+01  1.026549988E+02
3.158568610E+01  1.013787689E+02
3.160042689E+01  9.960988617E+01
3.161516768E+01  9.809455872E+01
3.162990847E+01  9.618674469E+01
3.164464926E+01  9.533229065E+01
3.165939006E+01  9.411257172E+01
3.167413085E+01  9.172009277E+01
3.168887164E+01  8.942846680E+01
3.170361243E+01  8.818003082E+01
3.171835322E+01  8.805927277E+01
3.173309402E+01  8.714501953E+01
3.174783481E+01  8.664771271E+01
3.176257560E+01  8.427538300E+01
3.177731639E+01  8.100794220E+01
3.179205719E+01  7.986848450E+01
3.180679798E+01  7.655206299E+01
3.182153877E+01  7.453200531E+01
3.183627956E+01  7.479720306E+01
3.185102035E+01  7.344902802E+01
3.186576115E+01  7.240834045E+01
3.188050194E+01  7.165504456E+01
3.189524273E+01  6.990045929E+01
3.190998352E+01  6.978424072E+01
3.192472431E+01  6.787065887E+01
3.193946511E+01  6.465395355E+01
3.195420590E+01  6.346280670E+01
3.196894669E+01  6.634411621E+01
3.198368748E+01  6.773359680E+01
3.199842827E+01  6.496752167E+01
3.201316907E+01  5.738027191E+01
3.202790986E+01  5.542936325E+01
3.204265065E+01  5.542936325E+01
3.205739144E+01  5.019421768E+01
3.207213224E+01  4.355540085E+01
3.208687303E+01  4.075244141E+01
