# == pyFAI calibration ==
# Distance Sample to Detector: 0.11507480176033233 m
# PONI: 5.477e-03, 4.716e-03 m
# Rotations: 0.004686 0.005536 0.000000 rad
# 
# == Fit2d calibration ==
# Distance Sample-beamCenter: 115.078 mm
# Center: x=55.690, y=81.516 pix
# Tilt: 0.416 deg  TiltPlanRot: 130.247 deg
# 
# Detector Detector	 Spline= None	 PixelSize= 7.500e-05, 7.500e-05 m
#    Detector has a mask: False 
#    Detector has a dark current: False 
#    detector has a flat field: False 
# 
# Wavelength: 4.833e-11 m
# Mask applied: None
# Dark current applied: None
# Flat field applied: None
# Polarization factor: None
# Normalization factor: None
#
# 2th_deg	 I
1.131209591E+00  7.323809814E+01
1.145950384E+00  7.873615265E+01
1.160691176E+00  8.973357391E+01
1.175431968E+00  9.820910645E+01
1.190172760E+00  1.110052567E+02
1.204913552E+00  1.215988388E+02
1.219654344E+00  1.322411346E+02
1.234395136E+00  1.378462830E+02
1.249135928E+00  1.435794525E+02
1.263876720E+00  1.528591003E+02
1.278617513E+00  1.576833344E+02
1.293358305E+00  1.612265625E+02
1.308099097E+00  1.626694489E+02
1.322839889E+00  1.671074524E+02
1.337580681E+00  1.721830597E+02
1.352321473E+00  1.756962433E+02
1.367062265E+00  1.799131012E+02
1.381803057E+00  1.821474762E+02
1.396543850E+00  1.853560333E+02
1.411284642E+00  1.880736694E+02
1.426025434E+00  1.903629913E+02
1.440766226E+00  1.943671417E+02
1.455507018E+00  1.960258484E+02
1.470247810E+00  1.973214264E+02
1.484988602E+00  2.003755951E+02
1.499729394E+00  2.023833313E+02
1.514470186E+00  2.056230011E+02
1.529210979E+00  2.073455048E+02
1.543951771E+00  2.090311737E+02
1.558692563E+00  2.109613647E+02
1.573433355E+00  2.121114655E+02
1.588174147E+00  2.134307709E+02
1.602914939E+00  2.146970367E+02
1.617655731E+00  2.167409210E+02
1.632396523E+00  2.194206085E+02
1.647137315E+00  2.229026184E+02
1.661878108E+00  2.244626312E+02
1.676618900E+00  2.227569580E+02
1.691359692E+00  2.229348602E+02
1.706100484E+00  2.231645660E+02
1.720841276E+00  2.246710815E+02
1.735582068E+00  2.256318207E+02
1.750322860E+00  2.271139679E+02
1.765063652E+00  2.270209351E+02
1.779804444E+00  2.282736969E+02
1.794545237E+00  2.289832458E+02
1.809286029E+00  2.311846619E+02
1.824026821E+00  2.325583038E+02
1.838767613E+00  2.340176239E+02
1.853508405E+00  2.348860168E+02
1.868249197E+00  2.345502472E+02
1.882989989E+00  2.350803223E+02
1.897730781E+00  2.357350922E+02
1.912471573E+00  2.368526001E+02
1.927212366E+00  2.392999268E+02
1.941953158E+00  2.397181244E+02
1.956693950E+00  2.410175018E+02
1.971434742E+00  2.424330139E+02
1.986175534E+00  2.436498108E+02
2.000916326E+00  2.463207397E+02
2.015657118E+00  2.475831451E+02
2.030397910E+00  2.492996368E+02
2.045138702E+00  2.511485748E+02
2.059879495E+00  2.523468475E+02
2.074620287E+00  2.541307831E+02
2.089361079E+00  2.557440338E+02
2.104101871E+00  2.566602173E+02
2.118842663E+00  2.583340454E+02
2.133583455E+00  2.594375305E+02
2.148324247E+00  2.612677917E+02
2.163065039E+00  2.620807495E+02
2.177805831E+00  2.629256897E+02
2.192546624E+00  2.643794556E+02
2.207287416E+00  2.654526367E+02
2.222028208E+00  2.681026306E+02
2.236769000E+00  2.679601135E+02
2.251509792E+00  2.675800781E+02
2.266250584E+00  2.670181274E+02
2.280991376E+00  2.671290894E+02
2.295732168E+00  2.679933777E+02
2.310472960E+00  2.673374329E+02
2.325213753E+00  2.676943665E+02
2.339954545E+00  2.683181763E+02
2.354695337E+00  2.686439819E+02
2.369436129E+00  2.700565491E+02
2.384176921E+00  2.707263794E+02
2.398917713E+00  2.714851074E+02
2.413658505E+00  2.726308594E+02
2.428399297E+00  2.728007202E+02
2.443140089E+00  2.731000366E+02
2.457880882E+00  2.723020325E+02
2.472621674E+00  2.724540100E+02
2.487362466E+00  2.720304871E+02
2.502103258E+00  2.719462891E+02
2.516844050E+00  2.726057434E+02
2.531584842E+00  2.733344727E+02
2.546325634E+00  2.732660522E+02
2.561066426E+00  2.723062744E+02
2.575807219E+00  2.710682068E+02
2.590548011E+00  2.701198730E+02
2.605288803E+00  2.701361084E+02
2.620029595E+00  2.705662231E+02
2.634770387E+00  2.720005798E+02
2.649511179E+00  2.726157227E+02
2.664251971E+00  2.727615051E+02
2.678992763E+00  2.714839172E+02
2.693733555E+00  2.708202515E+02
2.708474348E+00  2.695158691E+02
2.723215140E+00  2.689116211E+02
2.737955932E+00  2.689943237E+02
2.752696724E+00  2.695867310E+02
2.767437516E+00  2.700600281E+02
2.782178308E+00  2.690112915E+02
2.796919100E+00  2.681475220E+02
2.811659892E+00  2.681764526E+02
2.826400684E+00  2.691269836E+02
2.841141477E+00  2.696419983E+02
2.855882269E+00  2.687598877E+02
2.870623061E+00  2.678153687E+02
2.885363853E+00  2.680982056E+02
2.900104645E+00  2.683047791E+02
2.914845437E+00  2.676915894E+02
2.929586229E+00  2.666846008E+02
2.944327021E+00  2.654821472E+02
2.959067813E+00  2.646510010E+02
2.973808606E+00  2.655213928E+02
2.988549398E+00  2.662489319E+02
3.003290190E+00  2.657221069E+02
3.018030982E+00  2.646602478E+02
3.032771774E+00  2.634915161E+02
3.047512566E+00  2.643413391E+02
3.062253358E+00  2.650466614E+02
3.076994150E+00  2.657266846E+02
3.091734942E+00  2.651266174E+02
3.106475735E+00  2.647598572E+02
3.121216527E+00  2.638030701E+02
3.135957319E+00  2.629857788E+02
3.150698111E+00  2.631344910E+02
3.165438903E+00  2.628516235E+02
3.180179695E+00  2.630359802E+02
3.194920487E+00  2.642260437E+02
3.209661279E+00  2.646791992E+02
3.224402071E+00  2.647296143E+02
3.239142864E+00  2.639363708E+02
3.253883656E+00  2.625656738E+02
3.268624448E+00  2.625582581E+02
3.283365240E+00  2.624159546E+02
3.298106032E+00  2.627180481E+02
3.312846824E+00  2.624598694E+02
3.327587616E+00  2.618658447E+02
3.342328408E+00  2.623190918E+02
3.357069200E+00  2.630396729E+02
3.371809993E+00  2.634419250E+02
3.386550785E+00  2.626384583E+02
3.401291577E+00  2.618334961E+02
3.416032369E+00  2.615204468E+02
3.430773161E+00  2.605868225E+02
3.445513953E+00  2.599706726E+02
3.460254745E+00  2.596682129E+02
3.474995537E+00  2.585563354E+02
3.489736329E+00  2.592070618E+02
3.504477122E+00  2.597750854E+02
3.519217914E+00  2.599225769E+02
3.533958706E+00  2.590368042E+02
3.548699498E+00  2.579641418E+02
3.563440290E+00  2.568972473E+02
3.578181082E+00  2.564136963E+02
3.592921874E+00  2.564428101E+02
3.607662666E+00  2.566222534E+02
3.622403458E+00  2.557353821E+02
3.637144251E+00  2.553902893E+02
3.651885043E+00  2.543170013E+02
3.666625835E+00  2.544579468E+02
3.681366627E+00  2.537283325E+02
3.696107419E+00  2.535044556E+02
3.710848211E+00  2.535850525E+02
3.725589003E+00  2.542226410E+02
3.740329795E+00  2.544299011E+02
3.755070587E+00  2.531644897E+02
3.769811380E+00  2.526056366E+02
3.784552172E+00  2.539163055E+02
3.799292964E+00  2.562476501E+02
3.814033756E+00  2.590108032E+02
3.828774548E+00  2.609073486E+02
3.843515340E+00  2.622382507E+02
3.858256132E+00  2.634721985E+02
3.872996924E+00  2.645630493E+02
3.887737717E+00  2.645576172E+02
3.902478509E+00  2.649408875E+02
3.917219301E+00  2.641344299E+02
3.931960093E+00  2.621679993E+02
3.946700885E+00  2.605811768E+02
3.961441677E+00  2.584815979E+02
3.976182469E+00  2.572453613E+02
3.990923261E+00  2.566336670E+02
4.005664053E+00  2.559781494E+02
4.020404846E+00  2.545906525E+02
4.035145638E+00  2.529927368E+02
4.049886430E+00  2.526562042E+02
4.064627222E+00  2.526668854E+02
4.079368014E+00  2.526365204E+02
4.094108806E+00  2.513384705E+02
4.108849598E+00  2.499886169E+02
4.123590390E+00  2.481556091E+02
4.138331182E+00  2.474084320E+02
4.153071975E+00  2.463788452E+02
4.167812767E+00  2.451691742E+02
4.182553559E+00  2.443466949E+02
4.197294351E+00  2.441713104E+02
4.212035143E+00  2.453297119E+02
4.226775935E+00  2.444087372E+02
4.241516727E+00  2.432684021E+02
4.256257519E+00  2.416472321E+02
4.270998311E+00  2.408811340E+02
4.285739104E+00  2.410377960E+02
4.300479896E+00  2.415339813E+02
4.315220688E+00  2.420351257E+02
4.329961480E+00  2.412313232E+02
4.344702272E+00  2.409057922E+02
4.359443064E+00  2.398589935E+02
4.374183856E+00  2.392596436E+02
4.388924648E+00  2.385940247E+02
4.403665440E+00  2.385251465E+02
4.418406233E+00  2.383071136E+02
4.433147025E+00  2.382440338E+02
4.447887817E+00  2.371378632E+02
4.462628609E+00  2.367260742E+02
4.477369401E+00  2.362772064E+02
4.492110193E+00  2.359810638E+02
4.506850985E+00  2.356375122E+02
4.521591777E+00  2.353743896E+02
4.536332569E+00  2.352796478E+02
4.551073362E+00  2.346429596E+02
4.565814154E+00  2.344312897E+02
4.580554946E+00  2.342884827E+02
4.595295738E+00  2.337447205E+02
4.610036530E+00  2.323273163E+02
4.624777322E+00  2.320091095E+02
4.639518114E+00  2.323097534E+02
4.654258906E+00  2.319748535E+02
4.668999698E+00  2.317704315E+02
4.683740491E+00  2.321074371E+02
4.698481283E+00  2.322783966E+02
4.713222075E+00  2.318265076E+02
4.727962867E+00  2.311723175E+02
4.742703659E+00  2.313460999E+02
4.757444451E+00  2.319960632E+02
4.772185243E+00  2.316364746E+02
4.786926035E+00  2.310106049E+02
4.801666827E+00  2.304507904E+02
4.816407620E+00  2.301573639E+02
4.831148412E+00  2.296135101E+02
4.845889204E+00  2.292684479E+02
4.860629996E+00  2.285588074E+02
4.875370788E+00  2.276095276E+02
4.890111580E+00  2.276691895E+02
4.904852372E+00  2.285395050E+02
4.919593164E+00  2.286060638E+02
4.934333956E+00  2.280774384E+02
4.949074749E+00  2.273403168E+02
4.963815541E+00  2.274859161E+02
4.978556333E+00  2.279056549E+02
4.993297125E+00  2.279155579E+02
5.008037917E+00  2.273017120E+02
5.022778709E+00  2.271026459E+02
5.037519501E+00  2.275048523E+02
5.052260293E+00  2.275196838E+02
5.067001086E+00  2.273052979E+02
5.081741878E+00  2.260523224E+02
5.096482670E+00  2.260572357E+02
5.111223462E+00  2.263772278E+02
5.125964254E+00  2.270608063E+02
5.140705046E+00  2.274000244E+02
5.155445838E+00  2.271972656E+02
5.170186630E+00  2.266020660E+02
5.184927422E+00  2.257019043E+02
5.199668215E+00  2.254027557E+02
5.214409007E+00  2.245883636E+02
5.229149799E+00  2.237903137E+02
5.243890591E+00  2.236596375E+02
5.258631383E+00  2.238856659E+02
5.273372175E+00  2.239956360E+02
5.288112967E+00  2.238039551E+02
5.302853759E+00  2.237344818E+02
5.317594551E+00  2.233390350E+02
5.332335344E+00  2.226088104E+02
5.347076136E+00  2.222587433E+02
5.361816928E+00  2.223475800E+02
5.376557720E+00  2.221368866E+02
5.391298512E+00  2.221719971E+02
5.406039304E+00  2.217852631E+02
5.420780096E+00  2.214586639E+02
5.435520888E+00  2.210897369E+02
5.450261680E+00  2.208906097E+02
5.465002473E+00  2.205585175E+02
5.479743265E+00  2.203661194E+02
5.494484057E+00  2.207245636E+02
5.509224849E+00  2.209786072E+02
5.523965641E+00  2.217172546E+02
5.538706433E+00  2.211427307E+02
5.553447225E+00  2.211657715E+02
5.568188017E+00  2.205258331E+02
5.582928809E+00  2.201568451E+02
5.597669602E+00  2.203471375E+02
5.612410394E+00  2.200646362E+02
5.627151186E+00  2.202592773E+02
5.641891978E+00  2.203197174E+02
5.656632770E+00  2.209811401E+02
5.671373562E+00  2.205356140E+02
5.686114354E+00  2.202795715E+02
5.700855146E+00  2.201413422E+02
5.715595938E+00  2.207006531E+02
5.730336731E+00  2.208795166E+02
5.745077523E+00  2.211689911E+02
5.759818315E+00  2.221207733E+02
5.774559107E+00  2.225512085E+02
5.789299899E+00  2.234727173E+02
5.804040691E+00  2.241188202E+02
5.818781483E+00  2.244576416E+02
5.833522275E+00  2.238588715E+02
5.848263067E+00  2.231192169E+02
5.863003860E+00  2.228905487E+02
5.877744652E+00  2.219557800E+02
5.892485444E+00  2.214107666E+02
5.907226236E+00  2.212230530E+02
5.921967028E+00  2.213580627E+02
5.936707820E+00  2.208645477E+02
5.951448612E+00  2.205027008E+02
5.966189404E+00  2.204127808E+02
5.980930196E+00  2.208139191E+02
5.995670989E+00  2.206181335E+02
6.010411781E+00  2.198393707E+02
6.025152573E+00  2.194061737E+02
6.039893365E+00  2.189635162E+02
6.054634157E+00  2.191367493E+02
6.069374949E+00  2.191607208E+02
6.084115741E+00  2.194751892E+02
6.098856533E+00  2.196858673E+02
6.113597325E+00  2.197042999E+02
6.128338118E+00  2.199415588E+02
6.143078910E+00  2.190827942E+02
6.157819702E+00  2.183826599E+02
6.172560494E+00  2.189834595E+02
6.187301286E+00  2.197370758E+02
6.202042078E+00  2.201956329E+02
6.216782870E+00  2.195169525E+02
6.231523662E+00  2.189547577E+02
6.246264454E+00  2.196625671E+02
6.261005247E+00  2.199305573E+02
6.275746039E+00  2.198601532E+02
6.290486831E+00  2.194015503E+02
6.305227623E+00  2.196660156E+02
6.319968415E+00  2.205856018E+02
6.334709207E+00  2.204979706E+02
6.349449999E+00  2.194911041E+02
6.364190791E+00  2.197534027E+02
6.378931584E+00  2.199948273E+02
6.393672376E+00  2.215670776E+02
6.408413168E+00  2.215936890E+02
6.423153960E+00  2.217788391E+02
6.437894752E+00  2.217727509E+02
6.452635544E+00  2.219740295E+02
6.467376336E+00  2.221463470E+02
6.482117128E+00  2.222903748E+02
6.496857920E+00  2.218943329E+02
6.511598713E+00  2.217013550E+02
6.526339505E+00  2.221313782E+02
6.541080297E+00  2.222398987E+02
6.555821089E+00  2.226099701E+02
6.570561881E+00  2.221109772E+02
6.585302673E+00  2.217977448E+02
6.600043465E+00  2.220067596E+02
6.614784257E+00  2.217593689E+02
6.629525049E+00  2.213100433E+02
6.644265842E+00  2.213652344E+02
6.659006634E+00  2.217479858E+02
6.673747426E+00  2.229605713E+02
6.688488218E+00  2.232239532E+02
6.703229010E+00  2.235228424E+02
6.717969802E+00  2.229126587E+02
6.732710594E+00  2.214012451E+02
6.747451386E+00  2.205876007E+02
6.762192178E+00  2.206753845E+02
6.776932971E+00  2.214851532E+02
6.791673763E+00  2.225279236E+02
6.806414555E+00  2.224711914E+02
6.821155347E+00  2.228520660E+02
6.835896139E+00  2.232912598E+02
6.850636931E+00  2.240969238E+02
6.865377723E+00  2.240754852E+02
6.880118515E+00  2.236528015E+02
6.894859307E+00  2.235523834E+02
6.909600100E+00  2.240734863E+02
6.924340892E+00  2.245117035E+02
6.939081684E+00  2.250181580E+02
6.953822476E+00  2.246843109E+02
6.968563268E+00  2.239420776E+02
6.983304060E+00  2.237639465E+02
6.998044852E+00  2.235192413E+02
7.012785644E+00  2.235298157E+02
7.027526436E+00  2.242158356E+02
7.042267229E+00  2.251133881E+02
7.057008021E+00  2.257955627E+02
7.071748813E+00  2.254296875E+02
7.086489605E+00  2.252612457E+02
7.101230397E+00  2.253742523E+02
7.115971189E+00  2.257800598E+02
7.130711981E+00  2.263227081E+02
7.145452773E+00  2.270406494E+02
7.160193565E+00  2.277097473E+02
7.174934358E+00  2.272984467E+02
7.189675150E+00  2.271714630E+02
7.204415942E+00  2.265481415E+02
7.219156734E+00  2.262732849E+02
7.233897526E+00  2.256879425E+02
7.248638318E+00  2.264794769E+02
7.263379110E+00  2.272270355E+02
7.278119902E+00  2.279631348E+02
7.292860694E+00  2.276674500E+02
7.307601487E+00  2.275786285E+02
7.322342279E+00  2.279396362E+02
7.337083071E+00  2.287623596E+02
7.351823863E+00  2.289326172E+02
7.366564655E+00  2.281481018E+02
7.381305447E+00  2.274057465E+02
7.396046239E+00  2.274391937E+02
7.410787031E+00  2.276418610E+02
7.425527823E+00  2.279669647E+02
7.440268616E+00  2.282568970E+02
7.455009408E+00  2.286427765E+02
7.469750200E+00  2.289200134E+02
7.484490992E+00  2.293887329E+02
7.499231784E+00  2.298667297E+02
7.513972576E+00  2.296971893E+02
7.528713368E+00  2.297091675E+02
7.543454160E+00  2.295399475E+02
7.558194953E+00  2.302059326E+02
7.572935745E+00  2.300544128E+02
7.587676537E+00  2.301845551E+02
7.602417329E+00  2.307605438E+02
7.617158121E+00  2.306923218E+02
7.631898913E+00  2.312347565E+02
7.646639705E+00  2.314479980E+02
7.661380497E+00  2.312437286E+02
7.676121289E+00  2.311639557E+02
7.690862082E+00  2.311125183E+02
7.705602874E+00  2.306658936E+02
7.720343666E+00  2.304062347E+02
7.735084458E+00  2.305853729E+02
7.749825250E+00  2.319053802E+02
7.764566042E+00  2.323148956E+02
7.779306834E+00  2.324133759E+02
7.794047626E+00  2.322094727E+02
7.808788418E+00  2.325906219E+02
7.823529211E+00  2.334346924E+02
7.838270003E+00  2.331407623E+02
7.853010795E+00  2.333922424E+02
7.867751587E+00  2.328398590E+02
7.882492379E+00  2.333068237E+02
7.897233171E+00  2.334950409E+02
7.911973963E+00  2.338653412E+02
7.926714755E+00  2.346405792E+02
7.941455547E+00  2.357897034E+02
7.956196340E+00  2.362335510E+02
7.970937132E+00  2.363659668E+02
7.985677924E+00  2.359358063E+02
8.000418716E+00  2.356234283E+02
8.015159508E+00  2.362676544E+02
8.029900300E+00  2.363294983E+02
8.044641092E+00  2.364206085E+02
8.059381884E+00  2.365408325E+02
8.074122676E+00  2.371904449E+02
8.088863469E+00  2.388737030E+02
8.103604261E+00  2.396827087E+02
8.118345053E+00  2.398416901E+02
8.133085845E+00  2.399147949E+02
8.147826637E+00  2.398369598E+02
8.162567429E+00  2.408848114E+02
8.177308221E+00  2.420366364E+02
8.192049013E+00  2.429704437E+02
8.206789805E+00  2.427439728E+02
8.221530598E+00  2.428820343E+02
8.236271390E+00  2.442288208E+02
8.251012182E+00  2.457084351E+02
8.265752974E+00  2.468968048E+02
8.280493766E+00  2.463973846E+02
8.295234558E+00  2.474678802E+02
8.309975350E+00  2.489322510E+02
8.324716142E+00  2.508381500E+02
8.339456934E+00  2.494895782E+02
8.354197727E+00  2.493510895E+02
8.368938519E+00  2.507948151E+02
8.383679311E+00  2.541011047E+02
8.398420103E+00  2.574313354E+02
8.413160895E+00  2.618282471E+02
8.427901687E+00  2.669688721E+02
8.442642479E+00  2.725153198E+02
8.457383271E+00  2.753125916E+02
8.472124063E+00  2.792274780E+02
8.486864856E+00  2.839283142E+02
8.501605648E+00  2.910997314E+02
8.516346440E+00  3.002342224E+02
8.531087232E+00  3.103001709E+02
8.545828024E+00  3.231407471E+02
8.560568816E+00  3.359651794E+02
8.575309608E+00  3.481824341E+02
8.590050400E+00  3.566886902E+02
8.604791192E+00  3.616711731E+02
8.619531985E+00  3.598749695E+02
8.634272777E+00  3.546686401E+02
8.649013569E+00  3.442789001E+02
8.663754361E+00  3.325893250E+02
8.678495153E+00  3.186377563E+02
8.693235945E+00  3.071871033E+02
8.707976737E+00  2.967113647E+02
8.722717529E+00  2.889417725E+02
8.737458321E+00  2.811328735E+02
8.752199114E+00  2.761530762E+02
8.766939906E+00  2.783634033E+02
8.781680698E+00  2.813745117E+02
8.796421490E+00  2.813886108E+02
8.811162282E+00  2.778188171E+02
8.825903074E+00  2.743676453E+02
8.840643866E+00  2.719513245E+02
8.855384658E+00  2.703056030E+02
8.870125451E+00  2.691977234E+02
8.884866243E+00  2.686118164E+02
8.899607035E+00  2.680206604E+02
8.914347827E+00  2.683142395E+02
8.929088619E+00  2.690676575E+02
8.943829411E+00  2.703375244E+02
8.958570203E+00  2.710039978E+02
8.973310995E+00  2.711880493E+02
8.988051787E+00  2.716449890E+02
9.002792580E+00  2.718388672E+02
9.017533372E+00  2.719821472E+02
9.032274164E+00  2.724446106E+02
9.047014956E+00  2.734680176E+02
9.061755748E+00  2.734481506E+02
9.076496540E+00  2.736297302E+02
9.091237332E+00  2.740917053E+02
9.105978124E+00  2.749291992E+02
9.120718916E+00  2.744366150E+02
9.135459709E+00  2.739118347E+02
9.150200501E+00  2.742304382E+02
9.164941293E+00  2.756265869E+02
9.179682085E+00  2.764403992E+02
9.194422877E+00  2.775580139E+02
9.209163669E+00  2.779784241E+02
9.223904461E+00  2.785574951E+02
9.238645253E+00  2.798984985E+02
9.253386045E+00  2.814817810E+02
9.268126838E+00  2.832334900E+02
9.282867630E+00  2.836608887E+02
9.297608422E+00  2.841453552E+02
9.312349214E+00  2.843486938E+02
9.327090006E+00  2.848751526E+02
9.341830798E+00  2.854475708E+02
9.356571590E+00  2.858387756E+02
9.371312382E+00  2.864669800E+02
9.386053174E+00  2.869017639E+02
9.400793967E+00  2.867879639E+02
9.415534759E+00  2.877927246E+02
9.430275551E+00  2.878444519E+02
9.445016343E+00  2.880233154E+02
9.459757135E+00  2.882307739E+02
9.474497927E+00  2.896723633E+02
9.489238719E+00  2.910990906E+02
9.503979511E+00  2.920770874E+02
9.518720303E+00  2.927357178E+02
9.533461096E+00  2.928036804E+02
9.548201888E+00  2.931221924E+02
9.562942680E+00  2.929825745E+02
9.577683472E+00  2.931464233E+02
9.592424264E+00  2.925468445E+02
9.607165056E+00  2.918721924E+02
9.621905848E+00  2.920760498E+02
9.636646640E+00  2.930520020E+02
9.651387432E+00  2.935642700E+02
9.666128225E+00  2.937984314E+02
9.680869017E+00  2.927241211E+02
9.695609809E+00  2.927640991E+02
9.710350601E+00  2.928686829E+02
9.725091393E+00  2.926235352E+02
9.739832185E+00  2.924595642E+02
9.754572977E+00  2.920533142E+02
9.769313769E+00  2.920852661E+02
9.784054561E+00  2.923344421E+02
9.798795354E+00  2.922518616E+02
9.813536146E+00  2.924626465E+02
9.828276938E+00  2.915151672E+02
9.843017730E+00  2.915553894E+02
9.857758522E+00  2.919169312E+02
9.872499314E+00  2.921373291E+02
9.887240106E+00  2.915313110E+02
9.901980898E+00  2.894886475E+02
9.916721690E+00  2.875065002E+02
9.931462483E+00  2.864791870E+02
9.946203275E+00  2.865191345E+02
9.960944067E+00  2.879487305E+02
9.975684859E+00  2.886914978E+02
9.990425651E+00  2.907443542E+02
1.000516644E+01  2.937863770E+02
1.001990724E+01  2.965873718E+02
1.003464803E+01  2.996109924E+02
1.004938882E+01  3.033726196E+02
1.006412961E+01  3.086361694E+02
1.007887040E+01  3.162006226E+02
1.009361120E+01  3.264018555E+02
1.010835199E+01  3.398949585E+02
1.012309278E+01  3.565613098E+02
1.013783357E+01  3.748433838E+02
1.015257436E+01  3.942952576E+02
1.016731516E+01  4.119336243E+02
1.018205595E+01  4.240321655E+02
1.019679674E+01  4.258431091E+02
1.021153753E+01  4.177698364E+02
1.022627832E+01  4.039497681E+02
1.024101912E+01  3.886377869E+02
1.025575991E+01  3.757606812E+02
1.027050070E+01  3.693095398E+02
1.028524149E+01  3.673280945E+02
1.029998229E+01  3.657567749E+02
1.031472308E+01  3.631670227E+02
1.032946387E+01  3.603645630E+02
1.034420466E+01  3.561652222E+02
1.035894545E+01  3.505923462E+02
1.037368625E+01  3.436478882E+02
1.038842704E+01  3.367228394E+02
1.040316783E+01  3.396725159E+02
1.041790862E+01  3.467900696E+02
1.043264941E+01  3.499252319E+02
1.044739021E+01  3.478131409E+02
1.046213100E+01  3.381796875E+02
1.047687179E+01  3.292001953E+02
1.049161258E+01  3.221559448E+02
1.050635337E+01  3.149726868E+02
1.052109417E+01  3.095329895E+02
1.053583496E+01  3.060939941E+02
1.055057575E+01  3.023255615E+02
1.056531654E+01  2.987521362E+02
1.058005734E+01  2.948267212E+02
1.059479813E+01  2.918294067E+02
1.060953892E+01  2.898706665E+02
1.062427971E+01  2.875895386E+02
1.063902050E+01  2.856227417E+02
1.065376130E+01  2.841220398E+02
1.066850209E+01  2.822961731E+02
1.068324288E+01  2.814390869E+02
1.069798367E+01  2.801766663E+02
1.071272446E+01  2.801785889E+02
1.072746526E+01  2.793421936E+02
1.074220605E+01  2.782092896E+02
1.075694684E+01  2.777471924E+02
1.077168763E+01  2.768161621E+02
1.078642843E+01  2.770523987E+02
1.080116922E+01  2.765061035E+02
1.081591001E+01  2.756466064E+02
1.083065080E+01  2.744642944E+02
1.084539159E+01  2.746424561E+02
1.086013239E+01  2.734608154E+02
1.087487318E+01  2.722425842E+02
1.088961397E+01  2.721690369E+02
1.090435476E+01  2.730238647E+02
1.091909555E+01  2.729057007E+02
1.093383635E+01  2.728098450E+02
1.094857714E+01  2.724662781E+02
1.096331793E+01  2.722055054E+02
1.097805872E+01  2.713363647E+02
1.099279951E+01  2.715595398E+02
1.100754031E+01  2.723848267E+02
1.102228110E+01  2.722208557E+02
1.103702189E+01  2.724815063E+02
1.105176268E+01  2.724070740E+02
1.106650348E+01  2.725019836E+02
1.108124427E+01  2.722726440E+02
1.109598506E+01  2.718083801E+02
1.111072585E+01  2.726710815E+02
1.112546664E+01  2.725988159E+02
1.114020744E+01  2.728221741E+02
1.115494823E+01  2.724756470E+02
1.116968902E+01  2.726299133E+02
1.118442981E+01  2.725441284E+02
1.119917060E+01  2.727129517E+02
1.121391140E+01  2.732818909E+02
1.122865219E+01  2.744936829E+02
1.124339298E+01  2.749230347E+02
1.125813377E+01  2.748254700E+02
1.127287456E+01  2.746225891E+02
1.128761536E+01  2.751568298E+02
1.130235615E+01  2.751431274E+02
1.131709694E+01  2.747064819E+02
1.133183773E+01  2.754951782E+02
1.134657853E+01  2.767062378E+02
1.136131932E+01  2.788543701E+02
1.137606011E+01  2.799053650E+02
1.139080090E+01  2.800493164E+02
1.140554169E+01  2.800779724E+02
1.142028249E+01  2.801898193E+02
1.143502328E+01  2.815853577E+02
1.144976407E+01  2.827116089E+02
1.146450486E+01  2.836677856E+02
1.147924565E+01  2.833731995E+02
1.149398645E+01  2.843802795E+02
1.150872724E+01  2.850628357E+02
1.152346803E+01  2.849700928E+02
1.153820882E+01  2.853887634E+02
1.155294961E+01  2.870184326E+02
1.156769041E+01  2.904313660E+02
1.158243120E+01  2.936177673E+02
1.159717199E+01  2.974377136E+02
1.161191278E+01  3.024075928E+02
1.162665358E+01  3.087204895E+02
1.164139437E+01  3.167544861E+02
1.165613516E+01  3.266964417E+02
1.167087595E+01  3.366903687E+02
1.168561674E+01  3.450334167E+02
1.170035754E+01  3.538729553E+02
1.171509833E+01  3.610379639E+02
1.172983912E+01  3.664231567E+02
1.174457991E+01  3.703583679E+02
1.175932070E+01  3.677984009E+02
1.177406150E+01  3.600771484E+02
1.178880229E+01  3.484608765E+02
1.180354308E+01  3.336451721E+02
1.181828387E+01  3.181116333E+02
1.183302467E+01  3.066452332E+02
1.184776546E+01  2.971662292E+02
1.186250625E+01  2.909555969E+02
1.187724704E+01  2.857282410E+02
1.189198783E+01  2.818316650E+02
1.190672863E+01  2.795392456E+02
1.192146942E+01  2.780880127E+02
1.193621021E+01  2.777413330E+02
1.195095100E+01  2.773139648E+02
1.196569179E+01  2.765417480E+02
1.198043259E+01  2.760478516E+02
1.199517338E+01  2.756154785E+02
1.200991417E+01  2.761250610E+02
1.202465496E+01  2.755840149E+02
1.203939575E+01  2.750596008E+02
1.205413655E+01  2.743771362E+02
1.206887734E+01  2.741766052E+02
1.208361813E+01  2.747612000E+02
1.209835892E+01  2.746956177E+02
1.211309972E+01  2.746814880E+02
1.212784051E+01  2.745666504E+02
1.214258130E+01  2.754621887E+02
1.215732209E+01  2.750829163E+02
1.217206288E+01  2.751177368E+02
1.218680368E+01  2.753311157E+02
1.220154447E+01  2.753780212E+02
1.221628526E+01  2.753359680E+02
1.223102605E+01  2.751228333E+02
1.224576684E+01  2.754064941E+02
1.226050764E+01  2.754284973E+02
1.227524843E+01  2.751885071E+02
1.228998922E+01  2.756168518E+02
1.230473001E+01  2.762038879E+02
1.231947080E+01  2.764535217E+02
1.233421160E+01  2.765643616E+02
1.234895239E+01  2.765318909E+02
1.236369318E+01  2.771936646E+02
1.237843397E+01  2.780289612E+02
1.239317477E+01  2.785715942E+02
1.240791556E+01  2.786358948E+02
1.242265635E+01  2.791153564E+02
1.243739714E+01  2.795169373E+02
1.245213793E+01  2.789379883E+02
1.246687873E+01  2.784994202E+02
1.248161952E+01  2.794680786E+02
1.249636031E+01  2.804192200E+02
1.251110110E+01  2.813478699E+02
1.252584189E+01  2.818303223E+02
1.254058269E+01  2.818688965E+02
1.255532348E+01  2.816464539E+02
1.257006427E+01  2.821158447E+02
1.258480506E+01  2.830655212E+02
1.259954585E+01  2.833821716E+02
1.261428665E+01  2.837416077E+02
1.262902744E+01  2.838349304E+02
1.264376823E+01  2.836264648E+02
1.265850902E+01  2.837636719E+02
1.267324982E+01  2.838892212E+02
1.268799061E+01  2.837062073E+02
1.270273140E+01  2.839851990E+02
1.271747219E+01  2.844186096E+02
1.273221298E+01  2.855447083E+02
1.274695378E+01  2.862160339E+02
1.276169457E+01  2.871660767E+02
1.277643536E+01  2.873973999E+02
1.279117615E+01  2.877870483E+02
1.280591694E+01  2.884398193E+02
1.282065774E+01  2.892149658E+02
1.283539853E+01  2.898072510E+02
1.285013932E+01  2.905107117E+02
1.286488011E+01  2.919296265E+02
1.287962091E+01  2.928122864E+02
1.289436170E+01  2.944201965E+02
1.290910249E+01  2.955854492E+02
1.292384328E+01  2.959030457E+02
1.293858407E+01  2.962971191E+02
1.295332487E+01  2.961279907E+02
1.296806566E+01  2.971313171E+02
1.298280645E+01  2.984053955E+02
1.299754724E+01  2.998905029E+02
1.301228803E+01  3.009426270E+02
1.302702883E+01  3.015303345E+02
1.304176962E+01  3.019453735E+02
1.305651041E+01  3.027044067E+02
1.307125120E+01  3.048174744E+02
1.308599199E+01  3.062925415E+02
1.310073279E+01  3.070285339E+02
1.311547358E+01  3.061696167E+02
1.313021437E+01  3.070747986E+02
1.314495516E+01  3.078603516E+02
1.315969596E+01  3.105289917E+02
1.317443675E+01  3.137694092E+02
1.318917754E+01  3.182403870E+02
1.320391833E+01  3.236627808E+02
1.321865912E+01  3.320838623E+02
1.323339992E+01  3.413009338E+02
1.324814071E+01  3.522818298E+02
1.326288150E+01  3.638056335E+02
1.327762229E+01  3.758944397E+02
1.329236308E+01  3.869817505E+02
1.330710388E+01  3.972196045E+02
1.332184467E+01  4.045390015E+02
1.333658546E+01  4.062669983E+02
1.335132625E+01  4.036535339E+02
1.336606704E+01  3.963651123E+02
1.338080784E+01  3.836856689E+02
1.339554863E+01  3.684049377E+02
1.341028942E+01  3.506241150E+02
1.342503021E+01  3.339496460E+02
1.343977101E+01  3.208241272E+02
1.345451180E+01  3.128390503E+02
1.346925259E+01  3.093381653E+02
1.348399338E+01  3.061490784E+02
1.349873417E+01  3.038106384E+02
1.351347497E+01  3.025303955E+02
1.352821576E+01  3.023641968E+02
1.354295655E+01  3.023769531E+02
1.355769734E+01  3.018545532E+02
1.357243813E+01  3.016212463E+02
1.358717893E+01  3.004921570E+02
1.360191972E+01  2.997658081E+02
1.361666051E+01  2.997617798E+02
1.363140130E+01  2.998103333E+02
1.364614209E+01  3.003434753E+02
1.366088289E+01  3.007567749E+02
1.367562368E+01  3.016972656E+02
1.369036447E+01  3.033457336E+02
1.370510526E+01  3.047311707E+02
1.371984606E+01  3.062074585E+02
1.373458685E+01  3.081158447E+02
1.374932764E+01  3.110879822E+02
1.376406843E+01  3.144326782E+02
1.377880922E+01  3.177354126E+02
1.379355002E+01  3.208452454E+02
1.380829081E+01  3.239584656E+02
1.382303160E+01  3.262427979E+02
1.383777239E+01  3.278213196E+02
1.385251318E+01  3.277236023E+02
1.386725398E+01  3.284835205E+02
1.388199477E+01  3.283624878E+02
1.389673556E+01  3.289459839E+02
1.391147635E+01  3.286553955E+02
1.392621715E+01  3.300641785E+02
1.394095794E+01  3.310429993E+02
1.395569873E+01  3.343196106E+02
1.397043952E+01  3.320291138E+02
1.398518031E+01  3.294530334E+02
1.399992111E+01  3.274681091E+02
1.401466190E+01  3.253049011E+02
1.402940269E+01  3.231076355E+02
1.404414348E+01  3.210325928E+02
1.405888427E+01  3.196725769E+02
1.407362507E+01  3.191555176E+02
1.408836586E+01  3.184562073E+02
1.410310665E+01  3.170943298E+02
1.411784744E+01  3.161633301E+02
1.413258823E+01  3.152934875E+02
1.414732903E+01  3.139264526E+02
1.416206982E+01  3.120023804E+02
1.417681061E+01  3.113659363E+02
1.419155140E+01  3.111041565E+02
1.420629220E+01  3.116801758E+02
1.422103299E+01  3.122777710E+02
1.423577378E+01  3.125115051E+02
1.425051457E+01  3.125529785E+02
1.426525536E+01  3.125361023E+02
1.427999616E+01  3.132818604E+02
1.429473695E+01  3.146278992E+02
1.430947774E+01  3.155085754E+02
1.432421853E+01  3.171190796E+02
1.433895932E+01  3.187820740E+02
1.435370012E+01  3.195625000E+02
1.436844091E+01  3.205266724E+02
1.438318170E+01  3.207204285E+02
1.439792249E+01  3.216030579E+02
1.441266328E+01  3.229507141E+02
1.442740408E+01  3.249638672E+02
1.444214487E+01  3.286059265E+02
1.445688566E+01  3.325720520E+02
1.447162645E+01  3.372859497E+02
1.448636725E+01  3.425247192E+02
1.450110804E+01  3.496250305E+02
1.451584883E+01  3.581598511E+02
1.453058962E+01  3.667198181E+02
1.454533041E+01  3.761924438E+02
1.456007121E+01  3.843256836E+02
1.457481200E+01  3.906770020E+02
1.458955279E+01  3.937894287E+02
1.460429358E+01  3.963694458E+02
1.461903437E+01  3.961576538E+02
1.463377517E+01  3.926188965E+02
1.464851596E+01  3.846421814E+02
1.466325675E+01  3.768662109E+02
1.467799754E+01  3.681036987E+02
1.469273833E+01  3.589394836E+02
1.470747913E+01  3.519068909E+02
1.472221992E+01  3.470577393E+02
1.473696071E+01  3.433904724E+02
1.475170150E+01  3.405323792E+02
1.476644230E+01  3.393952637E+02
1.478118309E+01  3.391388855E+02
1.479592388E+01  3.386595154E+02
1.481066467E+01  3.376838989E+02
1.482540546E+01  3.366522217E+02
1.484014626E+01  3.364975586E+02
1.485488705E+01  3.359112854E+02
1.486962784E+01  3.351913452E+02
1.488436863E+01  3.337210693E+02
1.489910942E+01  3.331204834E+02
1.491385022E+01  3.330912476E+02
1.492859101E+01  3.337221985E+02
1.494333180E+01  3.329151001E+02
1.495807259E+01  3.318793945E+02
1.497281339E+01  3.307570496E+02
1.498755418E+01  3.302914429E+02
1.500229497E+01  3.298592224E+02
1.501703576E+01  3.291016235E+02
1.503177655E+01  3.288389893E+02
1.504651735E+01  3.282709351E+02
1.506125814E+01  3.294233398E+02
1.507599893E+01  3.302157593E+02
1.509073972E+01  3.317442932E+02
1.510548051E+01  3.337657776E+02
1.512022131E+01  3.341368103E+02
1.513496210E+01  3.350316467E+02
1.514970289E+01  3.348182983E+02
1.516444368E+01  3.339996033E+02
1.517918447E+01  3.326177368E+02
1.519392527E+01  3.304928589E+02
1.520866606E+01  3.279725342E+02
1.522340685E+01  3.252885742E+02
1.523814764E+01  3.228402100E+02
1.525288844E+01  3.205629578E+02
1.526762923E+01  3.191210632E+02
1.528237002E+01  3.165874023E+02
1.529711081E+01  3.158896484E+02
1.531185160E+01  3.152981873E+02
1.532659240E+01  3.143538513E+02
1.534133319E+01  3.134380188E+02
1.535607398E+01  3.121569824E+02
1.537081477E+01  3.119455261E+02
1.538555556E+01  3.115105896E+02
1.540029636E+01  3.118662720E+02
1.541503715E+01  3.118445435E+02
1.542977794E+01  3.118720703E+02
1.544451873E+01  3.111586914E+02
1.545925952E+01  3.105244446E+02
1.547400032E+01  3.105098267E+02
1.548874111E+01  3.100916748E+02
1.550348190E+01  3.102647400E+02
1.551822269E+01  3.108441162E+02
1.553296349E+01  3.116407471E+02
1.554770428E+01  3.126732788E+02
1.556244507E+01  3.122789612E+02
1.557718586E+01  3.119323120E+02
1.559192665E+01  3.112723389E+02
1.560666745E+01  3.120247498E+02
1.562140824E+01  3.122698059E+02
1.563614903E+01  3.131512756E+02
1.565088982E+01  3.127930603E+02
1.566563061E+01  3.123019409E+02
1.568037141E+01  3.119809570E+02
1.569511220E+01  3.119249573E+02
1.570985299E+01  3.115739136E+02
1.572459378E+01  3.116389160E+02
1.573933457E+01  3.108002319E+02
1.575407537E+01  3.108554993E+02
1.576881616E+01  3.108520813E+02
1.578355695E+01  3.119177246E+02
1.579829774E+01  3.121966553E+02
1.581303854E+01  3.124352417E+02
1.582777933E+01  3.123139954E+02
1.584252012E+01  3.121337585E+02
1.585726091E+01  3.122080994E+02
1.587200170E+01  3.128442993E+02
1.588674250E+01  3.133895874E+02
1.590148329E+01  3.135189514E+02
1.591622408E+01  3.133152771E+02
1.593096487E+01  3.130111084E+02
1.594570566E+01  3.125532532E+02
1.596044646E+01  3.117573547E+02
1.597518725E+01  3.110798645E+02
1.598992804E+01  3.111755981E+02
1.600466883E+01  3.113352966E+02
1.601940963E+01  3.115794983E+02
1.603415042E+01  3.116080017E+02
1.604889121E+01  3.117668457E+02
1.606363200E+01  3.119634094E+02
1.607837279E+01  3.118621521E+02
1.609311359E+01  3.114426880E+02
1.610785438E+01  3.108261414E+02
1.612259517E+01  3.107471619E+02
1.613733596E+01  3.105097961E+02
1.615207675E+01  3.110030518E+02
1.616681755E+01  3.112118835E+02
1.618155834E+01  3.111523438E+02
1.619629913E+01  3.106661072E+02
1.621103992E+01  3.109205017E+02
1.622578071E+01  3.117520752E+02
1.624052151E+01  3.121724548E+02
1.625526230E+01  3.128008423E+02
1.627000309E+01  3.134556274E+02
1.628474388E+01  3.141784973E+02
1.629948468E+01  3.150931091E+02
1.631422547E+01  3.153996582E+02
1.632896626E+01  3.157718201E+02
1.634370705E+01  3.160629883E+02
1.635844784E+01  3.165353088E+02
1.637318864E+01  3.164004517E+02
1.638792943E+01  3.164634094E+02
1.640267022E+01  3.169061890E+02
1.641741101E+01  3.169745178E+02
1.643215180E+01  3.168685608E+02
1.644689260E+01  3.162731018E+02
1.646163339E+01  3.157424927E+02
1.647637418E+01  3.157843323E+02
1.649111497E+01  3.157176819E+02
1.650585576E+01  3.154510803E+02
1.652059656E+01  3.150721436E+02
1.653533735E+01  3.145368958E+02
1.655007814E+01  3.150006714E+02
1.656481893E+01  3.156183472E+02
1.657955973E+01  3.153622742E+02
1.659430052E+01  3.152479248E+02
1.660904131E+01  3.146694946E+02
1.662378210E+01  3.144451294E+02
1.663852289E+01  3.150169373E+02
1.665326369E+01  3.148216858E+02
1.666800448E+01  3.148531189E+02
1.668274527E+01  3.143026428E+02
1.669748606E+01  3.149220276E+02
1.671222685E+01  3.149848022E+02
1.672696765E+01  3.148764954E+02
1.674170844E+01  3.148609619E+02
1.675644923E+01  3.157342529E+02
1.677119002E+01  3.170674438E+02
1.678593081E+01  3.176495972E+02
1.680067161E+01  3.182890930E+02
1.681541240E+01  3.194530640E+02
1.683015319E+01  3.211004944E+02
1.684489398E+01  3.219093933E+02
1.685963478E+01  3.229807739E+02
1.687437557E+01  3.249649353E+02
1.688911636E+01  3.271243286E+02
1.690385715E+01  3.286548462E+02
1.691859794E+01  3.296998596E+02
1.693333874E+01  3.312676086E+02
1.694807953E+01  3.324737549E+02
1.696282032E+01  3.326292114E+02
1.697756111E+01  3.314673767E+02
1.699230190E+01  3.293217773E+02
1.700704270E+01  3.277885742E+02
1.702178349E+01  3.256972656E+02
1.703652428E+01  3.239406128E+02
1.705126507E+01  3.215613708E+02
1.706600587E+01  3.196128845E+02
1.708074666E+01  3.177937317E+02
1.709548745E+01  3.175760498E+02
1.711022824E+01  3.174897156E+02
1.712496903E+01  3.173103638E+02
1.713970983E+01  3.160526733E+02
1.715445062E+01  3.158832092E+02
1.716919141E+01  3.166957092E+02
1.718393220E+01  3.169002991E+02
1.719867299E+01  3.170582886E+02
1.721341379E+01  3.173591614E+02
1.722815458E+01  3.176333313E+02
1.724289537E+01  3.176119690E+02
1.725763616E+01  3.176925964E+02
1.727237695E+01  3.178848267E+02
1.728711775E+01  3.185755310E+02
1.730185854E+01  3.192010803E+02
1.731659933E+01  3.188947449E+02
1.733134012E+01  3.184658203E+02
1.734608092E+01  3.175928040E+02
1.736082171E+01  3.173667908E+02
1.737556250E+01  3.167419739E+02
1.739030329E+01  3.167880859E+02
1.740504408E+01  3.162700195E+02
1.741978488E+01  3.163630981E+02
1.743452567E+01  3.156011658E+02
1.744926646E+01  3.154342651E+02
1.746400725E+01  3.144586487E+02
1.747874804E+01  3.148408203E+02
1.749348884E+01  3.148570251E+02
1.750822963E+01  3.148726196E+02
1.752297042E+01  3.151840820E+02
1.753771121E+01  3.159504089E+02
1.755245200E+01  3.165110779E+02
1.756719280E+01  3.175177612E+02
1.758193359E+01  3.174383850E+02
1.759667438E+01  3.175184631E+02
1.761141517E+01  3.169901123E+02
1.762615597E+01  3.173985291E+02
1.764089676E+01  3.175347595E+02
1.765563755E+01  3.186386719E+02
1.767037834E+01  3.188851624E+02
1.768511913E+01  3.186321411E+02
1.769985993E+01  3.194405518E+02
1.771460072E+01  3.201498108E+02
1.772934151E+01  3.213388062E+02
1.774408230E+01  3.217789612E+02
1.775882309E+01  3.230364075E+02
1.777356389E+01  3.241217346E+02
1.778830468E+01  3.248346252E+02
1.780304547E+01  3.262930603E+02
1.781778626E+01  3.282267456E+02
1.783252705E+01  3.303385315E+02
1.784726785E+01  3.321011963E+02
1.786200864E+01  3.336571350E+02
1.787674943E+01  3.345587463E+02
1.789149022E+01  3.347988892E+02
1.790623102E+01  3.346531982E+02
1.792097181E+01  3.351729736E+02
1.793571260E+01  3.356301880E+02
1.795045339E+01  3.353518372E+02
1.796519418E+01  3.350894775E+02
1.797993498E+01  3.340317993E+02
1.799467577E+01  3.333851318E+02
1.800941656E+01  3.320062561E+02
1.802415735E+01  3.305913086E+02
1.803889814E+01  3.300394897E+02
1.805363894E+01  3.300690918E+02
1.806837973E+01  3.300048828E+02
1.808312052E+01  3.297892456E+02
1.809786131E+01  3.298425598E+02
1.811260211E+01  3.289057922E+02
1.812734290E+01  3.279688110E+02
1.814208369E+01  3.269602051E+02
1.815682448E+01  3.255899658E+02
1.817156527E+01  3.244986572E+02
1.818630607E+01  3.240209045E+02
1.820104686E+01  3.231374207E+02
1.821578765E+01  3.219922485E+02
1.823052844E+01  3.212641296E+02
1.824526923E+01  3.205589294E+02
1.826001003E+01  3.205147400E+02
1.827475082E+01  3.199547729E+02
1.828949161E+01  3.190219421E+02
1.830423240E+01  3.186301270E+02
1.831897319E+01  3.190853882E+02
1.833371399E+01  3.195481873E+02
1.834845478E+01  3.192416992E+02
1.836319557E+01  3.190754395E+02
1.837793636E+01  3.193403320E+02
1.839267716E+01  3.189664612E+02
1.840741795E+01  3.194764404E+02
1.842215874E+01  3.201343689E+02
1.843689953E+01  3.198574829E+02
1.845164032E+01  3.203859253E+02
1.846638112E+01  3.206818848E+02
1.848112191E+01  3.223963623E+02
1.849586270E+01  3.233392639E+02
1.851060349E+01  3.235032959E+02
1.852534428E+01  3.228525085E+02
1.854008508E+01  3.227264099E+02
1.855482587E+01  3.231229858E+02
1.856956666E+01  3.240085144E+02
1.858430745E+01  3.240610046E+02
1.859904824E+01  3.233523865E+02
1.861378904E+01  3.225777893E+02
1.862852983E+01  3.224132690E+02
1.864327062E+01  3.222138977E+02
1.865801141E+01  3.213408813E+02
1.867275221E+01  3.201528320E+02
1.868749300E+01  3.187963867E+02
1.870223379E+01  3.181109619E+02
1.871697458E+01  3.169620056E+02
1.873171537E+01  3.162171936E+02
1.874645617E+01  3.159808044E+02
1.876119696E+01  3.158194275E+02
1.877593775E+01  3.159304810E+02
1.879067854E+01  3.155806580E+02
1.880541933E+01  3.156747437E+02
1.882016013E+01  3.155991211E+02
1.883490092E+01  3.155109253E+02
1.884964171E+01  3.154754944E+02
1.886438250E+01  3.148881226E+02
1.887912329E+01  3.139663086E+02
1.889386409E+01  3.127089844E+02
1.890860488E+01  3.125623169E+02
1.892334567E+01  3.126941223E+02
1.893808646E+01  3.126138611E+02
1.895282726E+01  3.130776978E+02
1.896756805E+01  3.137879028E+02
1.898230884E+01  3.138642883E+02
1.899704963E+01  3.125020447E+02
1.901179042E+01  3.130680847E+02
1.902653122E+01  3.132184753E+02
1.904127201E+01  3.123388672E+02
1.905601280E+01  3.112962036E+02
1.907075359E+01  3.108384094E+02
1.908549438E+01  3.115662537E+02
1.910023518E+01  3.131675720E+02
1.911497597E+01  3.138077698E+02
1.912971676E+01  3.135277710E+02
1.914445755E+01  3.131367798E+02
1.915919834E+01  3.130540161E+02
1.917393914E+01  3.131621704E+02
1.918867993E+01  3.128092041E+02
1.920342072E+01  3.126371460E+02
1.921816151E+01  3.118799744E+02
1.923290231E+01  3.122997742E+02
1.924764310E+01  3.119785461E+02
1.926238389E+01  3.121658936E+02
1.927712468E+01  3.114283447E+02
1.929186547E+01  3.111428528E+02
1.930660627E+01  3.116087036E+02
1.932134706E+01  3.120405884E+02
1.933608785E+01  3.126678467E+02
1.935082864E+01  3.121064758E+02
1.936556943E+01  3.113787537E+02
1.938031023E+01  3.109449463E+02
1.939505102E+01  3.108612976E+02
1.940979181E+01  3.107964783E+02
1.942453260E+01  3.114934998E+02
1.943927340E+01  3.115211792E+02
1.945401419E+01  3.124774780E+02
1.946875498E+01  3.126629944E+02
1.948349577E+01  3.131694336E+02
1.949823656E+01  3.126143799E+02
1.951297736E+01  3.123893127E+02
1.952771815E+01  3.127910767E+02
1.954245894E+01  3.129916077E+02
1.955719973E+01  3.125186157E+02
1.957194052E+01  3.122765198E+02
1.958668132E+01  3.128110657E+02
1.960142211E+01  3.124229736E+02
1.961616290E+01  3.124350891E+02
1.963090369E+01  3.127362976E+02
1.964564448E+01  3.126564636E+02
1.966038528E+01  3.127937622E+02
1.967512607E+01  3.136646423E+02
1.968986686E+01  3.137823181E+02
1.970460765E+01  3.136530762E+02
1.971934845E+01  3.130501099E+02
1.973408924E+01  3.124824829E+02
1.974883003E+01  3.119404297E+02
1.976357082E+01  3.114217529E+02
1.977831161E+01  3.122976074E+02
1.979305241E+01  3.126423950E+02
1.980779320E+01  3.123259583E+02
1.982253399E+01  3.124835815E+02
1.983727478E+01  3.129050903E+02
1.985201557E+01  3.129647827E+02
1.986675637E+01  3.130368652E+02
1.988149716E+01  3.136555176E+02
1.989623795E+01  3.141702576E+02
1.991097874E+01  3.146269226E+02
1.992571953E+01  3.151731873E+02
1.994046033E+01  3.154363403E+02
1.995520112E+01  3.154739380E+02
1.996994191E+01  3.158011780E+02
1.998468270E+01  3.155161133E+02
1.999942350E+01  3.154257812E+02
2.001416429E+01  3.153854980E+02
2.002890508E+01  3.170776062E+02
2.004364587E+01  3.184584045E+02
2.005838666E+01  3.195078735E+02
2.007312746E+01  3.196075134E+02
2.008786825E+01  3.201384277E+02
2.010260904E+01  3.214775085E+02
2.011734983E+01  3.226928101E+02
2.013209062E+01  3.235232239E+02
2.014683142E+01  3.241250305E+02
2.016157221E+01  3.250959473E+02
2.017631300E+01  3.265486145E+02
2.019105379E+01  3.281557312E+02
2.020579458E+01  3.311629333E+02
2.022053538E+01  3.338033142E+02
2.023527617E+01  3.371583862E+02
2.025001696E+01  3.412532959E+02
2.026475775E+01  3.461924438E+02
2.027949855E+01  3.522735291E+02
2.029423934E+01  3.581879883E+02
2.030898013E+01  3.640908203E+02
2.032372092E+01  3.677273254E+02
2.033846171E+01  3.716073303E+02
2.035320251E+01  3.740451965E+02
2.036794330E+01  3.739072571E+02
2.038268409E+01  3.718272400E+02
2.039742488E+01  3.678251648E+02
2.041216567E+01  3.635705566E+02
2.042690647E+01  3.587109375E+02
2.044164726E+01  3.539031982E+02
2.045638805E+01  3.493393250E+02
2.047112884E+01  3.445792236E+02
2.048586964E+01  3.395315247E+02
2.050061043E+01  3.349920044E+02
2.051535122E+01  3.308280640E+02
2.053009201E+01  3.279138794E+02
2.054483280E+01  3.255003052E+02
2.055957360E+01  3.241081238E+02
2.057431439E+01  3.231120911E+02
2.058905518E+01  3.209487610E+02
2.060379597E+01  3.194774780E+02
2.061853676E+01  3.193571777E+02
2.063327756E+01  3.197799988E+02
2.064801835E+01  3.199220581E+02
2.066275914E+01  3.187907104E+02
2.067749993E+01  3.178935242E+02
2.069224072E+01  3.185903625E+02
2.070698152E+01  3.188260803E+02
2.072172231E+01  3.186490784E+02
2.073646310E+01  3.183106689E+02
2.075120389E+01  3.176856079E+02
2.076594469E+01  3.170236511E+02
2.078068548E+01  3.161939697E+02
2.079542627E+01  3.153151550E+02
2.081016706E+01  3.149556274E+02
2.082490785E+01  3.151039734E+02
2.083964865E+01  3.144950562E+02
2.085438944E+01  3.141481934E+02
2.086913023E+01  3.141613770E+02
2.088387102E+01  3.148833923E+02
2.089861181E+01  3.150890808E+02
2.091335261E+01  3.154798889E+02
2.092809340E+01  3.149926147E+02
2.094283419E+01  3.144082031E+02
2.095757498E+01  3.144192810E+02
2.097231577E+01  3.139469604E+02
2.098705657E+01  3.139871521E+02
2.100179736E+01  3.143485718E+02
2.101653815E+01  3.134881287E+02
2.103127894E+01  3.122456970E+02
2.104601974E+01  3.117669678E+02
2.106076053E+01  3.123253174E+02
2.107550132E+01  3.117587280E+02
2.109024211E+01  3.121041870E+02
2.110498290E+01  3.120901794E+02
2.111972370E+01  3.117508545E+02
2.113446449E+01  3.116487732E+02
2.114920528E+01  3.119137573E+02
2.116394607E+01  3.115050354E+02
2.117868686E+01  3.113596191E+02
2.119342766E+01  3.117456055E+02
2.120816845E+01  3.122847900E+02
2.122290924E+01  3.132168579E+02
2.123765003E+01  3.138153076E+02
2.125239082E+01  3.143975830E+02
2.126713162E+01  3.146696472E+02
2.128187241E+01  3.138447266E+02
2.129661320E+01  3.137187195E+02
2.131135399E+01  3.133340149E+02
2.132609479E+01  3.133684387E+02
2.134083558E+01  3.132393799E+02
2.135557637E+01  3.135046692E+02
2.137031716E+01  3.145577393E+02
2.138505795E+01  3.154507141E+02
2.139979875E+01  3.157933044E+02
2.141453954E+01  3.156179199E+02
2.142928033E+01  3.156345215E+02
2.144402112E+01  3.158815002E+02
2.145876191E+01  3.168027954E+02
2.147350271E+01  3.175238647E+02
2.148824350E+01  3.187752075E+02
2.150298429E+01  3.184883118E+02
2.151772508E+01  3.189288635E+02
2.153246588E+01  3.186795349E+02
2.154720667E+01  3.185436401E+02
2.156194746E+01  3.178786316E+02
2.157668825E+01  3.183437805E+02
2.159142904E+01  3.181753235E+02
2.160616984E+01  3.176528931E+02
2.162091063E+01  3.171321106E+02
2.163565142E+01  3.163784485E+02
2.165039221E+01  3.163344727E+02
2.166513300E+01  3.158525085E+02
2.167987380E+01  3.151105347E+02
2.169461459E+01  3.146767578E+02
2.170935538E+01  3.147551270E+02
2.172409617E+01  3.158064880E+02
2.173883696E+01  3.152267456E+02
2.175357776E+01  3.144137878E+02
2.176831855E+01  3.151100159E+02
2.178305934E+01  3.163565369E+02
2.179780013E+01  3.159620667E+02
2.181254093E+01  3.152052612E+02
2.182728172E+01  3.146325989E+02
2.184202251E+01  3.150757446E+02
2.185676330E+01  3.160266418E+02
2.187150409E+01  3.164336853E+02
2.188624489E+01  3.158869629E+02
2.190098568E+01  3.146283264E+02
2.191572647E+01  3.151549988E+02
2.193046726E+01  3.156278992E+02
2.194520805E+01  3.163113098E+02
2.195994885E+01  3.164724731E+02
2.197468964E+01  3.167637024E+02
2.198943043E+01  3.171758423E+02
2.200417122E+01  3.170766907E+02
2.201891201E+01  3.180803223E+02
2.203365281E+01  3.181929932E+02
2.204839360E+01  3.179931030E+02
2.206313439E+01  3.181290283E+02
2.207787518E+01  3.200378418E+02
2.209261598E+01  3.206848755E+02
2.210735677E+01  3.204533386E+02
2.212209756E+01  3.187473145E+02
2.213683835E+01  3.185961914E+02
2.215157914E+01  3.193180237E+02
2.216631994E+01  3.207203369E+02
2.218106073E+01  3.228394470E+02
2.219580152E+01  3.242639160E+02
2.221054231E+01  3.249899292E+02
2.222528310E+01  3.253420715E+02
2.224002390E+01  3.256557922E+02
2.225476469E+01  3.270195923E+02
2.226950548E+01  3.280949402E+02
2.228424627E+01  3.298884277E+02
2.229898706E+01  3.309234009E+02
2.231372786E+01  3.325223694E+02
2.232846865E+01  3.338369141E+02
2.234320944E+01  3.364902649E+02
2.235795023E+01  3.389233704E+02
2.237269103E+01  3.409716187E+02
2.238743182E+01  3.416701965E+02
2.240217261E+01  3.423844910E+02
2.241691340E+01  3.428743286E+02
2.243165419E+01  3.428111877E+02
2.244639499E+01  3.414178162E+02
2.246113578E+01  3.396937256E+02
2.247587657E+01  3.372974243E+02
2.249061736E+01  3.351163025E+02
2.250535815E+01  3.325952148E+02
2.252009895E+01  3.307759399E+02
2.253483974E+01  3.289050903E+02
2.254958053E+01  3.279054565E+02
2.256432132E+01  3.265152588E+02
2.257906212E+01  3.250811462E+02
2.259380291E+01  3.247690125E+02
2.260854370E+01  3.255256653E+02
2.262328449E+01  3.252391052E+02
2.263802528E+01  3.248362427E+02
2.265276608E+01  3.251589661E+02
2.266750687E+01  3.259882507E+02
2.268224766E+01  3.259835205E+02
2.269698845E+01  3.254718323E+02
2.271172924E+01  3.250415344E+02
2.272647004E+01  3.256760864E+02
2.274121083E+01  3.258157043E+02
2.275595162E+01  3.260755920E+02
2.277069241E+01  3.271374207E+02
2.278543320E+01  3.270932922E+02
2.280017400E+01  3.266665039E+02
2.281491479E+01  3.264108887E+02
2.282965558E+01  3.273810120E+02
2.284439637E+01  3.280564880E+02
2.285913717E+01  3.289395752E+02
2.287387796E+01  3.286003113E+02
2.288861875E+01  3.292862549E+02
2.290335954E+01  3.304994812E+02
2.291810033E+01  3.317163696E+02
2.293284113E+01  3.317789001E+02
2.294758192E+01  3.325167542E+02
2.296232271E+01  3.345666809E+02
2.297706350E+01  3.371029358E+02
2.299180429E+01  3.400638428E+02
2.300654509E+01  3.431679993E+02
2.302128588E+01  3.436949768E+02
2.303602667E+01  3.455731812E+02
2.305076746E+01  3.483793945E+02
2.306550825E+01  3.523532410E+02
2.308024905E+01  3.551652527E+02
2.309498984E+01  3.590243835E+02
2.310973063E+01  3.632229614E+02
2.312447142E+01  3.670707092E+02
2.313921222E+01  3.690665894E+02
2.315395301E+01  3.696444702E+02
2.316869380E+01  3.668172302E+02
2.318343459E+01  3.641066284E+02
2.319817538E+01  3.603782654E+02
2.321291618E+01  3.582874756E+02
2.322765697E+01  3.556294556E+02
2.324239776E+01  3.525054626E+02
2.325713855E+01  3.495641479E+02
2.327187934E+01  3.464411621E+02
2.328662014E+01  3.437922058E+02
2.330136093E+01  3.413663940E+02
2.331610172E+01  3.402751160E+02
2.333084251E+01  3.404341736E+02
2.334558330E+01  3.393567200E+02
2.336032410E+01  3.378744507E+02
2.337506489E+01  3.371865234E+02
2.338980568E+01  3.375087585E+02
2.340454647E+01  3.384804993E+02
2.341928727E+01  3.384262695E+02
2.343402806E+01  3.390776978E+02
2.344876885E+01  3.402510986E+02
2.346350964E+01  3.413101501E+02
2.347825043E+01  3.422868958E+02
2.349299123E+01  3.425640259E+02
2.350773202E+01  3.419183960E+02
2.352247281E+01  3.410012512E+02
2.353721360E+01  3.408365784E+02
2.355195439E+01  3.409851379E+02
2.356669519E+01  3.417303162E+02
2.358143598E+01  3.411673279E+02
2.359617677E+01  3.396547852E+02
2.361091756E+01  3.382286377E+02
2.362565836E+01  3.371131287E+02
2.364039915E+01  3.367031555E+02
2.365513994E+01  3.365838013E+02
2.366988073E+01  3.366323547E+02
2.368462152E+01  3.362011719E+02
2.369936232E+01  3.354286499E+02
2.371410311E+01  3.344491577E+02
2.372884390E+01  3.337754517E+02
2.374358469E+01  3.334773560E+02
2.375832548E+01  3.336229248E+02
2.377306628E+01  3.336551819E+02
2.378780707E+01  3.335227356E+02
2.380254786E+01  3.323348694E+02
2.381728865E+01  3.313063965E+02
2.383202944E+01  3.305470276E+02
2.384677024E+01  3.311663818E+02
2.386151103E+01  3.314821472E+02
2.387625182E+01  3.317764893E+02
2.389099261E+01  3.319295654E+02
2.390573341E+01  3.336749573E+02
2.392047420E+01  3.344002380E+02
2.393521499E+01  3.356067505E+02
2.394995578E+01  3.362844849E+02
2.396469657E+01  3.372036743E+02
2.397943737E+01  3.378284912E+02
2.399417816E+01  3.384550476E+02
2.400891895E+01  3.383038330E+02
2.402365974E+01  3.386191101E+02
2.403840053E+01  3.390364990E+02
2.405314133E+01  3.396732788E+02
2.406788212E+01  3.388795166E+02
2.408262291E+01  3.380207825E+02
2.409736370E+01  3.360728455E+02
2.411210449E+01  3.352827148E+02
2.412684529E+01  3.351659241E+02
2.414158608E+01  3.348515015E+02
2.415632687E+01  3.341050110E+02
2.417106766E+01  3.333603210E+02
2.418580846E+01  3.332092285E+02
2.420054925E+01  3.338150940E+02
2.421529004E+01  3.341470642E+02
2.423003083E+01  3.341277466E+02
2.424477162E+01  3.343058472E+02
2.425951242E+01  3.359099121E+02
2.427425321E+01  3.381346436E+02
2.428899400E+01  3.401576843E+02
2.430373479E+01  3.413570251E+02
2.431847558E+01  3.431994934E+02
2.433321638E+01  3.445140991E+02
2.434795717E+01  3.455070496E+02
2.436269796E+01  3.468196106E+02
2.437743875E+01  3.482117920E+02
2.439217954E+01  3.495966492E+02
2.440692034E+01  3.495765381E+02
2.442166113E+01  3.488310852E+02
2.443640192E+01  3.482817383E+02
2.445114271E+01  3.468005676E+02
2.446588351E+01  3.438997192E+02
2.448062430E+01  3.405732117E+02
2.449536509E+01  3.382892761E+02
2.451010588E+01  3.366063232E+02
2.452484667E+01  3.342076416E+02
2.453958747E+01  3.328428345E+02
2.455432826E+01  3.316685791E+02
2.456906905E+01  3.304060059E+02
2.458380984E+01  3.288378601E+02
2.459855063E+01  3.276146851E+02
2.461329143E+01  3.256316223E+02
2.462803222E+01  3.244319763E+02
2.464277301E+01  3.245861816E+02
2.465751380E+01  3.245610657E+02
2.467225460E+01  3.248353577E+02
2.468699539E+01  3.251750793E+02
2.470173618E+01  3.241784973E+02
2.471647697E+01  3.227317810E+02
2.473121776E+01  3.218501587E+02
2.474595856E+01  3.223110046E+02
2.476069935E+01  3.230029602E+02
2.477544014E+01  3.220621948E+02
2.479018093E+01  3.218251648E+02
2.480492172E+01  3.221220398E+02
2.481966252E+01  3.226105957E+02
2.483440331E+01  3.215345154E+02
2.484914410E+01  3.219270935E+02
2.486388489E+01  3.226368408E+02
2.487862568E+01  3.231995544E+02
2.489336648E+01  3.223489380E+02
2.490810727E+01  3.214823608E+02
2.492284806E+01  3.218941040E+02
2.493758885E+01  3.228676758E+02
2.495232965E+01  3.227109985E+02
2.496707044E+01  3.226721191E+02
2.498181123E+01  3.231637573E+02
2.499655202E+01  3.238702393E+02
2.501129281E+01  3.236893311E+02
2.502603361E+01  3.245107422E+02
2.504077440E+01  3.253727722E+02
2.505551519E+01  3.251849365E+02
2.507025598E+01  3.248893738E+02
2.508499677E+01  3.254237061E+02
2.509973757E+01  3.263047791E+02
2.511447836E+01  3.278330994E+02
2.512921915E+01  3.297969055E+02
2.514395994E+01  3.311644287E+02
2.515870073E+01  3.315029297E+02
2.517344153E+01  3.325747681E+02
2.518818232E+01  3.335760498E+02
2.520292311E+01  3.349754639E+02
2.521766390E+01  3.350167542E+02
2.523240470E+01  3.356893616E+02
2.524714549E+01  3.375054932E+02
2.526188628E+01  3.412056580E+02
2.527662707E+01  3.437598877E+02
2.529136786E+01  3.452199707E+02
2.530610866E+01  3.466278687E+02
2.532084945E+01  3.474806824E+02
2.533559024E+01  3.485782166E+02
2.535033103E+01  3.509035645E+02
2.536507182E+01  3.526314087E+02
2.537981262E+01  3.525028992E+02
2.539455341E+01  3.502600708E+02
2.540929420E+01  3.486632690E+02
2.542403499E+01  3.481931763E+02
2.543877578E+01  3.484873657E+02
2.545351658E+01  3.474323120E+02
2.546825737E+01  3.465413818E+02
2.548299816E+01  3.464537659E+02
2.549773895E+01  3.452362366E+02
2.551247975E+01  3.440480042E+02
2.552722054E+01  3.431013489E+02
2.554196133E+01  3.407687988E+02
2.555670212E+01  3.398996277E+02
2.557144291E+01  3.400510864E+02
2.558618371E+01  3.397099915E+02
2.560092450E+01  3.388464355E+02
2.561566529E+01  3.383263245E+02
2.563040608E+01  3.379750366E+02
2.564514687E+01  3.378722229E+02
2.565988767E+01  3.372710266E+02
2.567462846E+01  3.360464783E+02
2.568936925E+01  3.356911926E+02
2.570411004E+01  3.349138794E+02
2.571885084E+01  3.338529663E+02
2.573359163E+01  3.332302856E+02
2.574833242E+01  3.324040527E+02
2.576307321E+01  3.310740967E+02
2.577781400E+01  3.298041687E+02
2.579255480E+01  3.290414124E+02
2.580729559E+01  3.278203430E+02
2.582203638E+01  3.274881592E+02
2.583677717E+01  3.270987549E+02
2.585151796E+01  3.275189514E+02
2.586625876E+01  3.272641602E+02
2.588099955E+01  3.270214233E+02
2.589574034E+01  3.267412720E+02
2.591048113E+01  3.274502869E+02
2.592522192E+01  3.284997253E+02
2.593996272E+01  3.288192444E+02
2.595470351E+01  3.283795776E+02
2.596944430E+01  3.273706055E+02
2.598418509E+01  3.268637390E+02
2.599892589E+01  3.264293213E+02
2.601366668E+01  3.256062012E+02
2.602840747E+01  3.264714661E+02
2.604314826E+01  3.266829224E+02
2.605788905E+01  3.252595520E+02
2.607262985E+01  3.243507690E+02
2.608737064E+01  3.238324585E+02
2.610211143E+01  3.229136963E+02
2.611685222E+01  3.226773682E+02
2.613159301E+01  3.231485901E+02
2.614633381E+01  3.230166016E+02
2.616107460E+01  3.236453247E+02
2.617581539E+01  3.252194214E+02
2.619055618E+01  3.248003540E+02
2.620529697E+01  3.233228149E+02
2.622003777E+01  3.225811768E+02
2.623477856E+01  3.228474121E+02
2.624951935E+01  3.235579834E+02
2.626426014E+01  3.232078857E+02
2.627900094E+01  3.225114441E+02
2.629374173E+01  3.219342957E+02
2.630848252E+01  3.226869812E+02
2.632322331E+01  3.222391663E+02
2.633796410E+01  3.213944397E+02
2.635270490E+01  3.209410400E+02
2.636744569E+01  3.207127991E+02
2.638218648E+01  3.204415283E+02
2.639692727E+01  3.202297668E+02
2.641166806E+01  3.212144470E+02
2.642640886E+01  3.209202881E+02
2.644114965E+01  3.207199402E+02
2.645589044E+01  3.206351929E+02
2.647063123E+01  3.209570618E+02
2.648537202E+01  3.218085327E+02
2.650011282E+01  3.222424622E+02
2.651485361E+01  3.223225098E+02
2.652959440E+01  3.222559509E+02
2.654433519E+01  3.221381531E+02
2.655907599E+01  3.219259033E+02
2.657381678E+01  3.219397888E+02
2.658855757E+01  3.215127258E+02
2.660329836E+01  3.217037048E+02
2.661803915E+01  3.234365845E+02
2.663277995E+01  3.241480103E+02
2.664752074E+01  3.225397339E+02
2.666226153E+01  3.227590332E+02
2.667700232E+01  3.235224304E+02
2.669174311E+01  3.242509766E+02
2.670648391E+01  3.236292725E+02
2.672122470E+01  3.230773315E+02
2.673596549E+01  3.244198608E+02
2.675070628E+01  3.255719299E+02
2.676544707E+01  3.250084534E+02
2.678018787E+01  3.236864624E+02
2.679492866E+01  3.241134949E+02
2.680966945E+01  3.237336426E+02
2.682441024E+01  3.237958679E+02
2.683915104E+01  3.237040100E+02
2.685389183E+01  3.244580688E+02
2.686863262E+01  3.245126343E+02
2.688337341E+01  3.241297607E+02
2.689811420E+01  3.230220642E+02
2.691285500E+01  3.229213257E+02
2.692759579E+01  3.223621216E+02
2.694233658E+01  3.223216248E+02
2.695707737E+01  3.227815552E+02
2.697181816E+01  3.240289307E+02
2.698655896E+01  3.244376221E+02
2.700129975E+01  3.255747986E+02
2.701604054E+01  3.263767700E+02
2.703078133E+01  3.273454590E+02
2.704552213E+01  3.277692871E+02
2.706026292E+01  3.282519836E+02
2.707500371E+01  3.293609619E+02
2.708974450E+01  3.308252869E+02
2.710448529E+01  3.266484375E+02
2.711922609E+01  3.191119995E+02
2.713396688E+01  3.137242432E+02
2.714870767E+01  3.129052124E+02
2.716344846E+01  3.139111633E+02
2.717818925E+01  3.137586365E+02
2.719293005E+01  3.132439575E+02
2.720767084E+01  3.149414368E+02
2.722241163E+01  3.160904541E+02
2.723715242E+01  3.167459717E+02
2.725189321E+01  3.161923523E+02
2.726663401E+01  3.148368835E+02
2.728137480E+01  3.141943359E+02
2.729611559E+01  3.151564026E+02
2.731085638E+01  3.166393433E+02
2.732559718E+01  3.162937927E+02
2.734033797E+01  3.151191406E+02
2.735507876E+01  3.141195679E+02
2.736981955E+01  3.133854370E+02
2.738456034E+01  3.138740845E+02
2.739930114E+01  3.149027100E+02
2.741404193E+01  3.160164795E+02
2.742878272E+01  3.234744568E+02
2.744352351E+01  3.292947388E+02
2.745826430E+01  3.292289734E+02
2.747300510E+01  3.262560730E+02
2.748774589E+01  3.247315369E+02
2.750248668E+01  3.241553955E+02
2.751722747E+01  3.231147461E+02
2.753196826E+01  3.217428894E+02
2.754670906E+01  3.215019226E+02
2.756144985E+01  3.216311646E+02
2.757619064E+01  3.211859741E+02
2.759093143E+01  3.204531860E+02
2.760567223E+01  3.199729919E+02
2.762041302E+01  3.202113037E+02
2.763515381E+01  3.204686890E+02
2.764989460E+01  3.205555725E+02
2.766463539E+01  3.198835144E+02
2.767937619E+01  3.192246704E+02
2.769411698E+01  3.182621155E+02
2.770885777E+01  3.178411865E+02
2.772359856E+01  3.188317871E+02
2.773833935E+01  3.194158630E+02
2.775308015E+01  3.189631653E+02
2.776782094E+01  3.176937561E+02
2.778256173E+01  3.169302368E+02
2.779730252E+01  3.176079102E+02
2.781204331E+01  3.188541260E+02
2.782678411E+01  3.187547302E+02
2.784152490E+01  3.178525085E+02
2.785626569E+01  3.170322876E+02
2.787100648E+01  3.176829224E+02
2.788574728E+01  3.175297241E+02
2.790048807E+01  3.169371948E+02
2.791522886E+01  3.167232361E+02
2.792996965E+01  3.168471985E+02
2.794471044E+01  3.175791626E+02
2.795945124E+01  3.182126770E+02
2.797419203E+01  3.172095642E+02
2.798893282E+01  3.167001038E+02
2.800367361E+01  3.168506775E+02
2.801841440E+01  3.170111389E+02
2.803315520E+01  3.183371277E+02
2.804789599E+01  3.178952637E+02
2.806263678E+01  3.163508606E+02
2.807737757E+01  3.148451843E+02
2.809211837E+01  3.147789917E+02
2.810685916E+01  3.156925964E+02
2.812159995E+01  3.164904785E+02
2.813634074E+01  3.162239380E+02
2.815108153E+01  3.147365417E+02
2.816582233E+01  3.148197327E+02
2.818056312E+01  3.155020752E+02
2.819530391E+01  3.150224915E+02
2.821004470E+01  3.153988953E+02
2.822478549E+01  3.155414124E+02
2.823952629E+01  3.159280090E+02
2.825426708E+01  3.157564392E+02
2.826900787E+01  3.158381348E+02
2.828374866E+01  3.154662476E+02
2.829848945E+01  3.159723206E+02
2.831323025E+01  3.156419983E+02
2.832797104E+01  3.160013428E+02
2.834271183E+01  3.156546021E+02
2.835745262E+01  3.143094482E+02
2.837219342E+01  3.132649231E+02
2.838693421E+01  3.132553711E+02
2.840167500E+01  3.139268188E+02
2.841641579E+01  3.139425659E+02
2.843115658E+01  3.123641968E+02
2.844589738E+01  3.110973206E+02
2.846063817E+01  3.106388550E+02
2.847537896E+01  3.104572144E+02
2.849011975E+01  3.104026184E+02
2.850486054E+01  3.110267639E+02
2.851960134E+01  3.119005432E+02
2.853434213E+01  3.115934143E+02
2.854908292E+01  3.114311218E+02
2.856382371E+01  3.114000244E+02
2.857856450E+01  3.101390076E+02
2.859330530E+01  3.097576294E+02
2.860804609E+01  3.096681213E+02
2.862278688E+01  3.096486206E+02
2.863752767E+01  3.096430054E+02
2.865226847E+01  3.098562012E+02
2.866700926E+01  3.101707153E+02
2.868175005E+01  3.098121033E+02
2.869649084E+01  3.086794739E+02
2.871123163E+01  3.089503784E+02
2.872597243E+01  3.087872009E+02
2.874071322E+01  3.083305359E+02
2.875545401E+01  3.086842957E+02
2.877019480E+01  3.093611145E+02
2.878493559E+01  3.101238708E+02
2.879967639E+01  3.098829041E+02
2.881441718E+01  3.097900085E+02
2.882915797E+01  3.099539795E+02
2.884389876E+01  3.093151550E+02
2.885863955E+01  3.078268738E+02
2.887338035E+01  3.076010132E+02
2.888812114E+01  3.087814636E+02
2.890286193E+01  3.089517212E+02
2.891760272E+01  3.085777283E+02
2.893234352E+01  3.083407898E+02
2.894708431E+01  3.091527710E+02
2.896182510E+01  3.097906799E+02
2.897656589E+01  3.098941345E+02
2.899130668E+01  3.093526917E+02
2.900604748E+01  3.081510010E+02
2.902078827E+01  3.080205688E+02
2.903552906E+01  3.088724670E+02
2.905026985E+01  3.096967468E+02
2.906501064E+01  3.091868286E+02
2.907975144E+01  3.086628723E+02
2.909449223E+01  3.090975342E+02
2.910923302E+01  3.101965332E+02
2.912397381E+01  3.095054626E+02
2.913871461E+01  3.080648804E+02
2.915345540E+01  3.080561829E+02
2.916819619E+01  3.092017822E+02
2.918293698E+01  3.092796326E+02
2.919767777E+01  3.085751953E+02
2.921241857E+01  3.088648987E+02
2.922715936E+01  3.095072021E+02
2.924190015E+01  3.097310791E+02
2.925664094E+01  3.096665344E+02
2.927138173E+01  3.102803650E+02
2.928612253E+01  3.108156433E+02
2.930086332E+01  3.113016357E+02
2.931560411E+01  3.109138184E+02
2.933034490E+01  3.116402588E+02
2.934508569E+01  3.117988586E+02
2.935982649E+01  3.123320007E+02
2.937456728E+01  3.134734802E+02
2.938930807E+01  3.143040466E+02
2.940404886E+01  3.139057312E+02
2.941878966E+01  3.141708984E+02
2.943353045E+01  3.145263062E+02
2.944827124E+01  3.138317566E+02
2.946301203E+01  3.128396301E+02
2.947775282E+01  3.120462646E+02
2.949249362E+01  3.112856140E+02
2.950723441E+01  3.105466919E+02
2.952197520E+01  3.098810120E+02
2.953671599E+01  3.094157104E+02
2.955145678E+01  3.081831665E+02
2.956619758E+01  3.079284973E+02
2.958093837E+01  3.086654358E+02
2.959567916E+01  3.078858948E+02
2.961041995E+01  3.081965637E+02
2.962516074E+01  3.083942261E+02
2.963990154E+01  3.073428650E+02
2.965464233E+01  3.067359924E+02
2.966938312E+01  3.067095032E+02
2.968412391E+01  3.067282715E+02
2.969886471E+01  3.057168884E+02
2.971360550E+01  3.057559814E+02
2.972834629E+01  3.061206665E+02
2.974308708E+01  3.057220764E+02
2.975782787E+01  3.045748901E+02
2.977256867E+01  3.036695251E+02
2.978730946E+01  3.032378235E+02
2.980205025E+01  3.022271729E+02
2.981679104E+01  3.002006836E+02
2.983153183E+01  2.996040649E+02
2.984627263E+01  2.997151184E+02
2.986101342E+01  2.988987732E+02
2.987575421E+01  2.979964600E+02
2.989049500E+01  2.963083801E+02
2.990523579E+01  2.944875183E+02
2.991997659E+01  2.926631775E+02
2.993471738E+01  2.919734497E+02
2.994945817E+01  2.904538269E+02
2.996419896E+01  2.883974609E+02
2.997893976E+01  2.878901978E+02
2.999368055E+01  2.870867615E+02
3.000842134E+01  2.855651855E+02
3.002316213E+01  2.835745239E+02
3.003790292E+01  2.805349426E+02
3.005264372E+01  2.780917664E+02
3.006738451E+01  2.767564392E+02
3.008212530E+01  2.756977844E+02
3.009686609E+01  2.747722778E+02
3.011160688E+01  2.732158508E+02
3.012634768E+01  2.699101868E+02
3.014108847E+01  2.665928040E+02
3.015582926E+01  2.645172119E+02
3.017057005E+01  2.625230408E+02
3.018531085E+01  2.606523438E+02
3.020005164E+01  2.575133362E+02
3.021479243E+01  2.550305786E+02
3.022953322E+01  2.517273254E+02
3.024427401E+01  2.476346283E+02
3.025901481E+01  2.441798706E+02
3.027375560E+01  2.423815155E+02
3.028849639E+01  2.397183685E+02
3.030323718E+01  2.370978546E+02
3.031797797E+01  2.344243927E+02
3.033271877E+01  2.329216614E+02
3.034745956E+01  2.318053741E+02
3.036220035E+01  2.308651581E+02
3.037694114E+01  2.302568207E+02
3.039168193E+01  2.290374451E+02
3.040642273E+01  2.278040161E+02
3.042116352E+01  2.262418518E+02
3.043590431E+01  2.251223450E+02
3.045064510E+01  2.238134460E+02
3.046538590E+01  2.221515045E+02
3.048012669E+01  2.195386963E+02
3.049486748E+01  2.177675476E+02
3.050960827E+01  2.168886871E+02
3.052434906E+01  2.157368164E+02
3.053908986E+01  2.131987152E+02
3.055383065E+01  2.114494019E+02
3.056857144E+01  2.098938599E+02
3.058331223E+01  2.085261688E+02
3.059805302E+01  2.067908630E+02
3.061279382E+01  2.057820282E+02
3.062753461E+01  2.046253662E+02
3.064227540E+01  2.027089539E+02
3.065701619E+01  2.015085907E+02
3.067175698E+01  2.003199615E+02
3.068649778E+01  1.978707123E+02
3.070123857E+01  1.951248779E+02
3.071597936E+01  1.929339447E+02
3.073072015E+01  1.914975281E+02
3.074546095E+01  1.903138123E+02
3.076020174E+01  1.882709808E+02
3.077494253E+01  1.868621368E+02
3.078968332E+01  1.855917206E+02
3.080442411E+01  1.838517151E+02
3.081916491E+01  1.816777802E+02
3.083390570E+01  1.794496765E+02
3.084864649E+01  1.775854340E+02
3.086338728E+01  1.758861847E+02
3.087812807E+01  1.742975159E+02
3.089286887E+01  1.731180573E+02
3.090760966E+01  1.715879822E+02
3.092235045E+01  1.692984619E+02
3.093709124E+01  1.677827759E+02
3.095183203E+01  1.662383118E+02
3.096657283E+01  1.648287659E+02
3.098131362E+01  1.633474731E+02
3.099605441E+01  1.613957214E+02
3.101079520E+01  1.594530487E+02
3.102553600E+01  1.574171753E+02
3.104027679E+01  1.548420715E+02
3.105501758E+01  1.533338013E+02
3.106975837E+01  1.517452545E+02
3.108449916E+01  1.495285492E+02
3.109923996E+01  1.484502563E+02
3.111398075E+01  1.470247803E+02
3.112872154E+01  1.460175934E+02
3.114346233E+01  1.441671600E+02
3.115820312E+01  1.419530334E+02
3.117294392E+01  1.402948914E+02
3.118768471E+01  1.394288635E+02
3.120242550E+01  1.381953125E+02
3.121716629E+01  1.363647308E+02
3.123190709E+01  1.344209290E+02
3.124664788E+01  1.326694489E+02
3.126138867E+01  1.311449432E+02
3.127612946E+01  1.297239532E+02
3.129087025E+01  1.276675797E+02
3.130561105E+01  1.261661148E+02
3.132035184E+01  1.247092056E+02
3.133509263E+01  1.225995636E+02
3.134983342E+01  1.210449066E+02
3.136457421E+01  1.197730179E+02
3.137931501E+01  1.184008026E+02
3.139405580E+01  1.162900009E+02
3.140879659E+01  1.145386429E+02
3.142353738E+01  1.131525116E+02
3.143827817E+01  1.119703827E+02
3.145301897E+01  1.107829971E+02
3.146775976E+01  1.096439743E+02
3.148250055E+01  1.084975052E+02
3.149724134E+01  1.065648270E+02
3.151198214E+01  1.048306580E+02
3.152672293E+01  1.034844589E+02
3.154146372E+01  1.019181366E+02
3.155620451E+01  1.005192642E+02
3.157094530E+01  9.951631165E+01
3.158568610E+01  9.865772247E+01
3.160042689E+01  9.696641541E+01
3.161516768E+01  9.459817505E+01
3.162990847E+01  9.261126709E+01
3.164464926E+01  9.138162994E+01
3.165939006E+01  8.924177551E+01
3.167413085E+01  8.678340149E+01
3.168887164E+01  8.531139374E+01
3.170361243E+01  8.433702087E+01
3.171835322E+01  8.407319641E+01
3.173309402E+01  8.363100433E+01
3.174783481E+01  8.272502136E+01
3.176257560E+01  8.113883209E+01
3.177731639E+01  7.880339050E+01
3.179205719E+01  7.811212921E+01
3.180679798E+01  7.784084320E+01
3.182153877E+01  7.665620422E+01
3.183627956E+01  7.472607422E+01
3.185102035E+01  7.389575195E+01
3.186576115E+01  7.217404175E+01
3.188050194E+01  7.018576050E+01
3.189524273E+01  6.710209656E+01
3.190998352E+01  6.488658905E+01
3.192472431E+01  6.577153778E+01
3.193946511E+01  6.523492432E+01
3.195420590E+01  5.941117859E+01
3.196894669E+01  5.660097885E+01
3.198368748E+01  5.931567001E+01
3.199842827E+01  6.201070023E+01
3.201316907E+01  6.142679596E+01
3.202790986E+01  4.927054214E+01
3.204265065E+01  4.927054214E+01
3.205739144E+01  4.705707932E+01
3.207213224E+01  4.634167862E+01
3.208687303E+01  4.603963089E+01
