# == pyFAI calibration ==
# Distance Sample to Detector: 0.11507480176033233 m
# PONI: 5.477e-03, 4.716e-03 m
# Rotations: 0.004686 0.005536 0.000000 rad
# 
# == Fit2d calibration ==
# Distance Sample-beamCenter: 115.078 mm
# Center: x=55.690, y=81.516 pix
# Tilt: 0.416 deg  TiltPlanRot: 130.247 deg
# 
# Detector Detector	 Spline= None	 PixelSize= 7.500e-05, 7.500e-05 m
#    Detector has a mask: False 
#    Detector has a dark current: False 
#    detector has a flat field: False 
# 
# Wavelength: 4.833e-11 m
# Mask applied: None
# Dark current applied: None
# Flat field applied: None
# Polarization factor: None
# Normalization factor: None
#
# 2th_deg	 I
1.131209591E+00  5.746834564E+01
1.145950384E+00  7.076474762E+01
1.160691176E+00  8.448812103E+01
1.175431968E+00  9.594374084E+01
1.190172760E+00  1.111907730E+02
1.204913552E+00  1.218472977E+02
1.219654344E+00  1.303264618E+02
1.234395136E+00  1.343535309E+02
1.249135928E+00  1.390700073E+02
1.263876720E+00  1.491503448E+02
1.278617513E+00  1.567580872E+02
1.293358305E+00  1.625083008E+02
1.308099097E+00  1.636379700E+02
1.322839889E+00  1.662592163E+02
1.337580681E+00  1.701467743E+02
1.352321473E+00  1.741823730E+02
1.367062265E+00  1.788329926E+02
1.381803057E+00  1.817782898E+02
1.396543850E+00  1.865011292E+02
1.411284642E+00  1.908043976E+02
1.426025434E+00  1.928778076E+02
1.440766226E+00  1.964022827E+02
1.455507018E+00  1.987435455E+02
1.470247810E+00  2.003219910E+02
1.484988602E+00  2.038078156E+02
1.499729394E+00  2.036267395E+02
1.514470186E+00  2.057939301E+02
1.529210979E+00  2.074178314E+02
1.543951771E+00  2.089793701E+02
1.558692563E+00  2.120455322E+02
1.573433355E+00  2.132700958E+02
1.588174147E+00  2.161870117E+02
1.602914939E+00  2.166409302E+02
1.617655731E+00  2.179468384E+02
1.632396523E+00  2.200171967E+02
1.647137315E+00  2.237993622E+02
1.661878108E+00  2.269023590E+02
1.676618900E+00  2.258745575E+02
1.691359692E+00  2.263042450E+02
1.706100484E+00  2.268381042E+02
1.720841276E+00  2.294310303E+02
1.735582068E+00  2.313120575E+02
1.750322860E+00  2.320952606E+02
1.765063652E+00  2.310644531E+02
1.779804444E+00  2.308308716E+02
1.794545237E+00  2.303182068E+02
1.809286029E+00  2.321594391E+02
1.824026821E+00  2.343252563E+02
1.838767613E+00  2.358603058E+02
1.853508405E+00  2.373374023E+02
1.868249197E+00  2.370124512E+02
1.882989989E+00  2.379883118E+02
1.897730781E+00  2.378148193E+02
1.912471573E+00  2.387513885E+02
1.927212366E+00  2.409739227E+02
1.941953158E+00  2.420610504E+02
1.956693950E+00  2.440809326E+02
1.971434742E+00  2.456170044E+02
1.986175534E+00  2.479769287E+02
2.000916326E+00  2.503401489E+02
2.015657118E+00  2.511103363E+02
2.030397910E+00  2.528591766E+02
2.045138702E+00  2.540406952E+02
2.059879495E+00  2.562931824E+02
2.074620287E+00  2.573839722E+02
2.089361079E+00  2.580384827E+02
2.104101871E+00  2.595992126E+02
2.118842663E+00  2.612832947E+02
2.133583455E+00  2.632174683E+02
2.148324247E+00  2.643602905E+02
2.163065039E+00  2.647705994E+02
2.177805831E+00  2.643086853E+02
2.192546624E+00  2.639091187E+02
2.207287416E+00  2.641145020E+02
2.222028208E+00  2.668394165E+02
2.236769000E+00  2.675741272E+02
2.251509792E+00  2.683352966E+02
2.266250584E+00  2.687486267E+02
2.280991376E+00  2.695069275E+02
2.295732168E+00  2.704228821E+02
2.310472960E+00  2.700755005E+02
2.325213753E+00  2.711657410E+02
2.339954545E+00  2.718956299E+02
2.354695337E+00  2.733713989E+02
2.369436129E+00  2.738858948E+02
2.384176921E+00  2.742483826E+02
2.398917713E+00  2.743558960E+02
2.413658505E+00  2.746357117E+02
2.428399297E+00  2.746696167E+02
2.443140089E+00  2.741395874E+02
2.457880882E+00  2.739230347E+02
2.472621674E+00  2.744057617E+02
2.487362466E+00  2.752414856E+02
2.502103258E+00  2.756836243E+02
2.516844050E+00  2.760361328E+02
2.531584842E+00  2.763048096E+02
2.546325634E+00  2.756863098E+02
2.561066426E+00  2.753804932E+02
2.575807219E+00  2.748795776E+02
2.590548011E+00  2.743437195E+02
2.605288803E+00  2.738449707E+02
2.620029595E+00  2.745495605E+02
2.634770387E+00  2.748549500E+02
2.649511179E+00  2.752565613E+02
2.664251971E+00  2.743283386E+02
2.678992763E+00  2.744338074E+02
2.693733555E+00  2.745771484E+02
2.708474348E+00  2.734842529E+02
2.723215140E+00  2.720953369E+02
2.737955932E+00  2.718402100E+02
2.752696724E+00  2.721105347E+02
2.767437516E+00  2.728218079E+02
2.782178308E+00  2.718153992E+02
2.796919100E+00  2.712470093E+02
2.811659892E+00  2.708156128E+02
2.826400684E+00  2.705331116E+02
2.841141477E+00  2.701510315E+02
2.855882269E+00  2.706605835E+02
2.870623061E+00  2.704423523E+02
2.885363853E+00  2.714551392E+02
2.900104645E+00  2.715284424E+02
2.914845437E+00  2.724171448E+02
2.929586229E+00  2.714512939E+02
2.944327021E+00  2.707006836E+02
2.959067813E+00  2.703376770E+02
2.973808606E+00  2.701311340E+02
2.988549398E+00  2.697991028E+02
3.003290190E+00  2.688432312E+02
3.018030982E+00  2.678965149E+02
3.032771774E+00  2.671461792E+02
3.047512566E+00  2.675851440E+02
3.062253358E+00  2.680698547E+02
3.076994150E+00  2.686609192E+02
3.091734942E+00  2.680484009E+02
3.106475735E+00  2.672825623E+02
3.121216527E+00  2.671744995E+02
3.135957319E+00  2.671699219E+02
3.150698111E+00  2.667599182E+02
3.165438903E+00  2.658038940E+02
3.180179695E+00  2.658555298E+02
3.194920487E+00  2.673215332E+02
3.209661279E+00  2.679061279E+02
3.224402071E+00  2.680474548E+02
3.239142864E+00  2.664710388E+02
3.253883656E+00  2.653697510E+02
3.268624448E+00  2.653973083E+02
3.283365240E+00  2.659571228E+02
3.298106032E+00  2.658004150E+02
3.312846824E+00  2.654501648E+02
3.327587616E+00  2.638356934E+02
3.342328408E+00  2.639759827E+02
3.357069200E+00  2.646428223E+02
3.371809993E+00  2.645205078E+02
3.386550785E+00  2.642792969E+02
3.401291577E+00  2.646182251E+02
3.416032369E+00  2.644166260E+02
3.430773161E+00  2.640602417E+02
3.445513953E+00  2.628188477E+02
3.460254745E+00  2.618477478E+02
3.474995537E+00  2.621593628E+02
3.489736329E+00  2.629347534E+02
3.504477122E+00  2.635017395E+02
3.519217914E+00  2.622779236E+02
3.533958706E+00  2.609619446E+02
3.548699498E+00  2.606486816E+02
3.563440290E+00  2.610034180E+02
3.578181082E+00  2.617711792E+02
3.592921874E+00  2.613198853E+02
3.607662666E+00  2.609313354E+02
3.622403458E+00  2.609121399E+02
3.637144251E+00  2.611185913E+02
3.651885043E+00  2.596632996E+02
3.666625835E+00  2.577875671E+02
3.681366627E+00  2.556380768E+02
3.696107419E+00  2.551945801E+02
3.710848211E+00  2.546206818E+02
3.725589003E+00  2.551174316E+02
3.740329795E+00  2.562523193E+02
3.755070587E+00  2.577724915E+02
3.769811380E+00  2.575394287E+02
3.784552172E+00  2.578191528E+02
3.799292964E+00  2.576176147E+02
3.814033756E+00  2.601935425E+02
3.828774548E+00  2.623339233E+02
3.843515340E+00  2.645075989E+02
3.858256132E+00  2.683851929E+02
3.872996924E+00  2.715347900E+02
3.887737717E+00  2.727492676E+02
3.902478509E+00  2.736363220E+02
3.917219301E+00  2.730543213E+02
3.931960093E+00  2.719234924E+02
3.946700885E+00  2.697406311E+02
3.961441677E+00  2.677761536E+02
3.976182469E+00  2.658507080E+02
3.990923261E+00  2.652150574E+02
4.005664053E+00  2.641905518E+02
4.020404846E+00  2.612389221E+02
4.035145638E+00  2.592271423E+02
4.049886430E+00  2.567305298E+02
4.064627222E+00  2.561300049E+02
4.079368014E+00  2.560119934E+02
4.094108806E+00  2.549496918E+02
4.108849598E+00  2.545521088E+02
4.123590390E+00  2.531240387E+02
4.138331182E+00  2.521896057E+02
4.153071975E+00  2.512154999E+02
4.167812767E+00  2.504392090E+02
4.182553559E+00  2.497118073E+02
4.197294351E+00  2.493375854E+02
4.212035143E+00  2.486091156E+02
4.226775935E+00  2.479049988E+02
4.241516727E+00  2.465864868E+02
4.256257519E+00  2.466389008E+02
4.270998311E+00  2.469268494E+02
4.285739104E+00  2.472711945E+02
4.300479896E+00  2.471468201E+02
4.315220688E+00  2.457727509E+02
4.329961480E+00  2.459680328E+02
4.344702272E+00  2.462215118E+02
4.359443064E+00  2.459358978E+02
4.374183856E+00  2.452891846E+02
4.388924648E+00  2.445149689E+02
4.403665440E+00  2.441681976E+02
4.418406233E+00  2.428358765E+02
4.433147025E+00  2.421459808E+02
4.447887817E+00  2.417797699E+02
4.462628609E+00  2.418946686E+02
4.477369401E+00  2.414245605E+02
4.492110193E+00  2.402182007E+02
4.506850985E+00  2.392022705E+02
4.521591777E+00  2.388888550E+02
4.536332569E+00  2.389394073E+02
4.551073362E+00  2.384162292E+02
4.565814154E+00  2.390139160E+02
4.580554946E+00  2.384720764E+02
4.595295738E+00  2.382819824E+02
4.610036530E+00  2.373348389E+02
4.624777322E+00  2.365581055E+02
4.639518114E+00  2.367052765E+02
4.654258906E+00  2.364607086E+02
4.668999698E+00  2.367545776E+02
4.683740491E+00  2.359382324E+02
4.698481283E+00  2.351549835E+02
4.713222075E+00  2.354339294E+02
4.727962867E+00  2.356443634E+02
4.742703659E+00  2.354461823E+02
4.757444451E+00  2.351171722E+02
4.772185243E+00  2.349496002E+02
4.786926035E+00  2.345393372E+02
4.801666827E+00  2.340906067E+02
4.816407620E+00  2.342510071E+02
4.831148412E+00  2.347932281E+02
4.845889204E+00  2.347651672E+02
4.860629996E+00  2.339993286E+02
4.875370788E+00  2.333837280E+02
4.890111580E+00  2.328731537E+02
4.904852372E+00  2.331808929E+02
4.919593164E+00  2.324624939E+02
4.934333956E+00  2.317425690E+02
4.949074749E+00  2.310117645E+02
4.963815541E+00  2.313392334E+02
4.978556333E+00  2.313661041E+02
4.993297125E+00  2.307539673E+02
5.008037917E+00  2.299761658E+02
5.022778709E+00  2.295404053E+02
5.037519501E+00  2.305040588E+02
5.052260293E+00  2.310600586E+02
5.067001086E+00  2.311591492E+02
5.081741878E+00  2.303099060E+02
5.096482670E+00  2.288770599E+02
5.111223462E+00  2.284473267E+02
5.125964254E+00  2.292048492E+02
5.140705046E+00  2.305788574E+02
5.155445838E+00  2.308181610E+02
5.170186630E+00  2.297120361E+02
5.184927422E+00  2.284749756E+02
5.199668215E+00  2.275077515E+02
5.214409007E+00  2.272592316E+02
5.229149799E+00  2.275360260E+02
5.243890591E+00  2.274297943E+02
5.258631383E+00  2.272117004E+02
5.273372175E+00  2.271850281E+02
5.288112967E+00  2.268672943E+02
5.302853759E+00  2.265106049E+02
5.317594551E+00  2.266366577E+02
5.332335344E+00  2.263975677E+02
5.347076136E+00  2.264321442E+02
5.361816928E+00  2.259279327E+02
5.376557720E+00  2.258323212E+02
5.391298512E+00  2.262155914E+02
5.406039304E+00  2.265166321E+02
5.420780096E+00  2.265203247E+02
5.435520888E+00  2.256665649E+02
5.450261680E+00  2.246763153E+02
5.465002473E+00  2.242783203E+02
5.479743265E+00  2.248108978E+02
5.494484057E+00  2.257984009E+02
5.509224849E+00  2.256972656E+02
5.523965641E+00  2.251483154E+02
5.538706433E+00  2.239630737E+02
5.553447225E+00  2.239920959E+02
5.568188017E+00  2.248802032E+02
5.582928809E+00  2.253157501E+02
5.597669602E+00  2.252709198E+02
5.612410394E+00  2.251679535E+02
5.627151186E+00  2.244140015E+02
5.641891978E+00  2.246681824E+02
5.656632770E+00  2.250635529E+02
5.671373562E+00  2.250845490E+02
5.686114354E+00  2.246915283E+02
5.700855146E+00  2.244206848E+02
5.715595938E+00  2.241314697E+02
5.730336731E+00  2.244754791E+02
5.745077523E+00  2.251259460E+02
5.759818315E+00  2.266372986E+02
5.774559107E+00  2.267771759E+02
5.789299899E+00  2.262778320E+02
5.804040691E+00  2.255600739E+02
5.818781483E+00  2.254049377E+02
5.833522275E+00  2.259078369E+02
5.848263067E+00  2.266838837E+02
5.863003860E+00  2.275510559E+02
5.877744652E+00  2.272851105E+02
5.892485444E+00  2.267915344E+02
5.907226236E+00  2.256570892E+02
5.921967028E+00  2.246705933E+02
5.936707820E+00  2.241719818E+02
5.951448612E+00  2.231684723E+02
5.966189404E+00  2.233701019E+02
5.980930196E+00  2.235477142E+02
5.995670989E+00  2.237500153E+02
6.010411781E+00  2.232485199E+02
6.025152573E+00  2.230345306E+02
6.039893365E+00  2.228271027E+02
6.054634157E+00  2.231692505E+02
6.069374949E+00  2.231960907E+02
6.084115741E+00  2.233187866E+02
6.098856533E+00  2.229682617E+02
6.113597325E+00  2.227382660E+02
6.128338118E+00  2.221568756E+02
6.143078910E+00  2.224171600E+02
6.157819702E+00  2.225784454E+02
6.172560494E+00  2.223973541E+02
6.187301286E+00  2.222282257E+02
6.202042078E+00  2.226506500E+02
6.216782870E+00  2.226581879E+02
6.231523662E+00  2.225323029E+02
6.246264454E+00  2.227516022E+02
6.261005247E+00  2.228990631E+02
6.275746039E+00  2.231418304E+02
6.290486831E+00  2.225708466E+02
6.305227623E+00  2.226243591E+02
6.319968415E+00  2.233669891E+02
6.334709207E+00  2.236686249E+02
6.349449999E+00  2.237949219E+02
6.364190791E+00  2.235495911E+02
6.378931584E+00  2.233276062E+02
6.393672376E+00  2.235697479E+02
6.408413168E+00  2.242523041E+02
6.423153960E+00  2.248398743E+02
6.437894752E+00  2.249444885E+02
6.452635544E+00  2.255880890E+02
6.467376336E+00  2.259718781E+02
6.482117128E+00  2.256718903E+02
6.496857920E+00  2.247672729E+02
6.511598713E+00  2.250529633E+02
6.526339505E+00  2.254700775E+02
6.541080297E+00  2.262618256E+02
6.555821089E+00  2.260013885E+02
6.570561881E+00  2.268103638E+02
6.585302673E+00  2.271521149E+02
6.600043465E+00  2.268971100E+02
6.614784257E+00  2.270334778E+02
6.629525049E+00  2.260761719E+02
6.644265842E+00  2.259459686E+02
6.659006634E+00  2.255520325E+02
6.673747426E+00  2.257315979E+02
6.688488218E+00  2.261119537E+02
6.703229010E+00  2.265020905E+02
6.717969802E+00  2.268127441E+02
6.732710594E+00  2.258432312E+02
6.747451386E+00  2.251383057E+02
6.762192178E+00  2.250645447E+02
6.776932971E+00  2.253733673E+02
6.791673763E+00  2.261049042E+02
6.806414555E+00  2.267292480E+02
6.821155347E+00  2.272553711E+02
6.835896139E+00  2.270769043E+02
6.850636931E+00  2.269209595E+02
6.865377723E+00  2.264179840E+02
6.880118515E+00  2.266771088E+02
6.894859307E+00  2.268276978E+02
6.909600100E+00  2.268012390E+02
6.924340892E+00  2.272515106E+02
6.939081684E+00  2.270389709E+02
6.953822476E+00  2.272572327E+02
6.968563268E+00  2.278103180E+02
6.983304060E+00  2.283760834E+02
6.998044852E+00  2.284054413E+02
7.012785644E+00  2.285071411E+02
7.027526436E+00  2.288251495E+02
7.042267229E+00  2.289429321E+02
7.057008021E+00  2.302304840E+02
7.071748813E+00  2.299448853E+02
7.086489605E+00  2.299097748E+02
7.101230397E+00  2.291141968E+02
7.115971189E+00  2.293452606E+02
7.130711981E+00  2.295737305E+02
7.145452773E+00  2.304806976E+02
7.160193565E+00  2.308999939E+02
7.174934358E+00  2.304922180E+02
7.189675150E+00  2.297290497E+02
7.204415942E+00  2.296656494E+02
7.219156734E+00  2.296203003E+02
7.233897526E+00  2.295465240E+02
7.248638318E+00  2.298470154E+02
7.263379110E+00  2.302086792E+02
7.278119902E+00  2.307302704E+02
7.292860694E+00  2.314548492E+02
7.307601487E+00  2.323509674E+02
7.322342279E+00  2.327748566E+02
7.337083071E+00  2.320402374E+02
7.351823863E+00  2.314580536E+02
7.366564655E+00  2.314304352E+02
7.381305447E+00  2.314922180E+02
7.396046239E+00  2.316519470E+02
7.410787031E+00  2.318299713E+02
7.425527823E+00  2.327222748E+02
7.440268616E+00  2.334822388E+02
7.455009408E+00  2.338121338E+02
7.469750200E+00  2.340899353E+02
7.484490992E+00  2.337176208E+02
7.499231784E+00  2.336991425E+02
7.513972576E+00  2.332706909E+02
7.528713368E+00  2.332390747E+02
7.543454160E+00  2.328947601E+02
7.558194953E+00  2.326401520E+02
7.572935745E+00  2.320778809E+02
7.587676537E+00  2.333372498E+02
7.602417329E+00  2.340752716E+02
7.617158121E+00  2.345420990E+02
7.631898913E+00  2.344395905E+02
7.646639705E+00  2.346615448E+02
7.661380497E+00  2.353651733E+02
7.676121289E+00  2.357115784E+02
7.690862082E+00  2.361975403E+02
7.705602874E+00  2.360464783E+02
7.720343666E+00  2.355793152E+02
7.735084458E+00  2.354263000E+02
7.749825250E+00  2.354703674E+02
7.764566042E+00  2.356641998E+02
7.779306834E+00  2.361983795E+02
7.794047626E+00  2.368535919E+02
7.808788418E+00  2.372192383E+02
7.823529211E+00  2.366675720E+02
7.838270003E+00  2.365580750E+02
7.853010795E+00  2.366302185E+02
7.867751587E+00  2.377418365E+02
7.882492379E+00  2.379857178E+02
7.897233171E+00  2.382121582E+02
7.911973963E+00  2.376146698E+02
7.926714755E+00  2.381634369E+02
7.941455547E+00  2.392814026E+02
7.956196340E+00  2.400963745E+02
7.970937132E+00  2.405074310E+02
7.985677924E+00  2.408933105E+02
8.000418716E+00  2.410771942E+02
8.015159508E+00  2.413131561E+02
8.029900300E+00  2.409704895E+02
8.044641092E+00  2.407761993E+02
8.059381884E+00  2.409263000E+02
8.074122676E+00  2.417992554E+02
8.088863469E+00  2.430351105E+02
8.103604261E+00  2.434685822E+02
8.118345053E+00  2.434693604E+02
8.133085845E+00  2.439869690E+02
8.147826637E+00  2.444718933E+02
8.162567429E+00  2.450626984E+02
8.177308221E+00  2.454452515E+02
8.192049013E+00  2.455384521E+02
8.206789805E+00  2.458628845E+02
8.221530598E+00  2.460193481E+02
8.236271390E+00  2.460572662E+02
8.251012182E+00  2.460631104E+02
8.265752974E+00  2.463458862E+02
8.280493766E+00  2.459813385E+02
8.295234558E+00  2.465307312E+02
8.309975350E+00  2.465332336E+02
8.324716142E+00  2.469549255E+02
8.339456934E+00  2.476063538E+02
8.354197727E+00  2.487379608E+02
8.368938519E+00  2.485368347E+02
8.383679311E+00  2.489726715E+02
8.398420103E+00  2.512141876E+02
8.413160895E+00  2.541849670E+02
8.427901687E+00  2.574493408E+02
8.442642479E+00  2.600390930E+02
8.457383271E+00  2.630014038E+02
8.472124063E+00  2.661643677E+02
8.486864856E+00  2.700478821E+02
8.501605648E+00  2.752592163E+02
8.516346440E+00  2.797746887E+02
8.531087232E+00  2.838291931E+02
8.545828024E+00  2.900315552E+02
8.560568816E+00  2.970741272E+02
8.575309608E+00  3.050575562E+02
8.590050400E+00  3.138124695E+02
8.604791192E+00  3.237341614E+02
8.619531985E+00  3.353515320E+02
8.634272777E+00  3.466551208E+02
8.649013569E+00  3.568168945E+02
8.663754361E+00  3.635072327E+02
8.678495153E+00  3.644215393E+02
8.693235945E+00  3.638558655E+02
8.707976737E+00  3.595220032E+02
8.722717529E+00  3.528504944E+02
8.737458321E+00  3.410772095E+02
8.752199114E+00  3.291690063E+02
8.766939906E+00  3.178021851E+02
8.781680698E+00  3.082945557E+02
8.796421490E+00  2.995263977E+02
8.811162282E+00  2.931909180E+02
8.825903074E+00  2.872026367E+02
8.840643866E+00  2.821300049E+02
8.855384658E+00  2.789591980E+02
8.870125451E+00  2.779741211E+02
8.884866243E+00  2.776300049E+02
8.899607035E+00  2.777542114E+02
8.914347827E+00  2.771114197E+02
8.929088619E+00  2.771884766E+02
8.943829411E+00  2.772619324E+02
8.958570203E+00  2.778227844E+02
8.973310995E+00  2.775530090E+02
8.988051787E+00  2.770274353E+02
9.002792580E+00  2.771481018E+02
9.017533372E+00  2.775366516E+02
9.032274164E+00  2.780459900E+02
9.047014956E+00  2.781356201E+02
9.061755748E+00  2.788320312E+02
9.076496540E+00  2.790908203E+02
9.091237332E+00  2.792018127E+02
9.105978124E+00  2.792662354E+02
9.120718916E+00  2.790746155E+02
9.135459709E+00  2.781717224E+02
9.150200501E+00  2.778593750E+02
9.164941293E+00  2.783408813E+02
9.179682085E+00  2.794293213E+02
9.194422877E+00  2.808171082E+02
9.209163669E+00  2.809243469E+02
9.223904461E+00  2.819245911E+02
9.238645253E+00  2.818241882E+02
9.253386045E+00  2.825956421E+02
9.268126838E+00  2.834519653E+02
9.282867630E+00  2.847521057E+02
9.297608422E+00  2.855148621E+02
9.312349214E+00  2.860083618E+02
9.327090006E+00  2.862589722E+02
9.341830798E+00  2.867017517E+02
9.356571590E+00  2.879227295E+02
9.371312382E+00  2.895098572E+02
9.386053174E+00  2.900724182E+02
9.400793967E+00  2.906458130E+02
9.415534759E+00  2.913646240E+02
9.430275551E+00  2.923982544E+02
9.445016343E+00  2.927479553E+02
9.459757135E+00  2.927809448E+02
9.474497927E+00  2.923684082E+02
9.489238719E+00  2.918336487E+02
9.503979511E+00  2.924130554E+02
9.518720303E+00  2.930296326E+02
9.533461096E+00  2.944204712E+02
9.548201888E+00  2.944619141E+02
9.562942680E+00  2.948330078E+02
9.577683472E+00  2.948444519E+02
9.592424264E+00  2.953628235E+02
9.607165056E+00  2.956200867E+02
9.621905848E+00  2.957985535E+02
9.636646640E+00  2.964243164E+02
9.651387432E+00  2.966933594E+02
9.666128225E+00  2.970548401E+02
9.680869017E+00  2.966194458E+02
9.695609809E+00  2.963079529E+02
9.710350601E+00  2.959189453E+02
9.725091393E+00  2.957441711E+02
9.739832185E+00  2.954312134E+02
9.754572977E+00  2.952696533E+02
9.769313769E+00  2.956088257E+02
9.784054561E+00  2.960299377E+02
9.798795354E+00  2.956290894E+02
9.813536146E+00  2.949847107E+02
9.828276938E+00  2.942543030E+02
9.843017730E+00  2.942987366E+02
9.857758522E+00  2.945780334E+02
9.872499314E+00  2.944528503E+02
9.887240106E+00  2.945616455E+02
9.901980898E+00  2.944765930E+02
9.916721690E+00  2.949393311E+02
9.931462483E+00  2.948448792E+02
9.946203275E+00  2.943851013E+02
9.960944067E+00  2.945047302E+02
9.975684859E+00  2.954677429E+02
9.990425651E+00  2.966622925E+02
1.000516644E+01  2.975008850E+02
1.001990724E+01  2.978305359E+02
1.003464803E+01  2.980286255E+02
1.004938882E+01  2.983266907E+02
1.006412961E+01  2.980270386E+02
1.007887040E+01  2.985731812E+02
1.009361120E+01  2.991206360E+02
1.010835199E+01  2.995167542E+02
1.012309278E+01  3.012835388E+02
1.013783357E+01  3.045341797E+02
1.015257436E+01  3.093207703E+02
1.016731516E+01  3.149819641E+02
1.018205595E+01  3.225466614E+02
1.019679674E+01  3.325499573E+02
1.021153753E+01  3.456430969E+02
1.022627832E+01  3.625505981E+02
1.024101912E+01  3.830117798E+02
1.025575991E+01  4.033052673E+02
1.027050070E+01  4.220294189E+02
1.028524149E+01  4.346615295E+02
1.029998229E+01  4.400961304E+02
1.031472308E+01  4.357715759E+02
1.032946387E+01  4.242960205E+02
1.034420466E+01  4.101145630E+02
1.035894545E+01  3.963122559E+02
1.037368625E+01  3.873586121E+02
1.038842704E+01  3.816337891E+02
1.040316783E+01  3.778414917E+02
1.041790862E+01  3.741665649E+02
1.043264941E+01  3.692363281E+02
1.044739021E+01  3.631067810E+02
1.046213100E+01  3.559841614E+02
1.047687179E+01  3.480518799E+02
1.049161258E+01  3.410296631E+02
1.050635337E+01  3.327705688E+02
1.052109417E+01  3.260821533E+02
1.053583496E+01  3.200188293E+02
1.055057575E+01  3.168052979E+02
1.056531654E+01  3.155286865E+02
1.058005734E+01  3.138933716E+02
1.059479813E+01  3.120163879E+02
1.060953892E+01  3.097642212E+02
1.062427971E+01  3.072924805E+02
1.063902050E+01  3.052325745E+02
1.065376130E+01  3.024178467E+02
1.066850209E+01  3.002539978E+02
1.068324288E+01  2.984905090E+02
1.069798367E+01  2.960863037E+02
1.071272446E+01  2.936751099E+02
1.072746526E+01  2.907968140E+02
1.074220605E+01  2.890650330E+02
1.075694684E+01  2.885125732E+02
1.077168763E+01  2.878807373E+02
1.078642843E+01  2.869718018E+02
1.080116922E+01  2.859565735E+02
1.081591001E+01  2.847857056E+02
1.083065080E+01  2.838858948E+02
1.084539159E+01  2.829639893E+02
1.086013239E+01  2.825390015E+02
1.087487318E+01  2.811263428E+02
1.088961397E+01  2.813150940E+02
1.090435476E+01  2.816311035E+02
1.091909555E+01  2.813809814E+02
1.093383635E+01  2.805864868E+02
1.094857714E+01  2.799847107E+02
1.096331793E+01  2.801560669E+02
1.097805872E+01  2.796169128E+02
1.099279951E+01  2.793336487E+02
1.100754031E+01  2.788698120E+02
1.102228110E+01  2.779973450E+02
1.103702189E+01  2.777009583E+02
1.105176268E+01  2.779025269E+02
1.106650348E+01  2.777867432E+02
1.108124427E+01  2.775352783E+02
1.109598506E+01  2.779252014E+02
1.111072585E+01  2.784218750E+02
1.112546664E+01  2.784942627E+02
1.114020744E+01  2.784046631E+02
1.115494823E+01  2.778098145E+02
1.116968902E+01  2.776570740E+02
1.118442981E+01  2.778660278E+02
1.119917060E+01  2.782199707E+02
1.121391140E+01  2.788366089E+02
1.122865219E+01  2.791043091E+02
1.124339298E+01  2.786701660E+02
1.125813377E+01  2.780790405E+02
1.127287456E+01  2.780357971E+02
1.128761536E+01  2.785871277E+02
1.130235615E+01  2.793116760E+02
1.131709694E+01  2.794485168E+02
1.133183773E+01  2.796762085E+02
1.134657853E+01  2.803372192E+02
1.136131932E+01  2.805800781E+02
1.137606011E+01  2.812876892E+02
1.139080090E+01  2.817976990E+02
1.140554169E+01  2.824562988E+02
1.142028249E+01  2.829185791E+02
1.143502328E+01  2.836055603E+02
1.144976407E+01  2.839983826E+02
1.146450486E+01  2.851839294E+02
1.147924565E+01  2.860251160E+02
1.149398645E+01  2.875982971E+02
1.150872724E+01  2.889917603E+02
1.152346803E+01  2.905501099E+02
1.153820882E+01  2.926150208E+02
1.155294961E+01  2.947936401E+02
1.156769041E+01  2.974071350E+02
1.158243120E+01  3.006134338E+02
1.159717199E+01  3.049603882E+02
1.161191278E+01  3.099601135E+02
1.162665358E+01  3.161667175E+02
1.164139437E+01  3.248237000E+02
1.165613516E+01  3.349725647E+02
1.167087595E+01  3.454057312E+02
1.168561674E+01  3.541128845E+02
1.170035754E+01  3.634341736E+02
1.171509833E+01  3.714696655E+02
1.172983912E+01  3.785467224E+02
1.174457991E+01  3.857816162E+02
1.175932070E+01  3.864628906E+02
1.177406150E+01  3.838140259E+02
1.178880229E+01  3.728046265E+02
1.180354308E+01  3.580767212E+02
1.181828387E+01  3.409368896E+02
1.183302467E+01  3.267566223E+02
1.184776546E+01  3.130233459E+02
1.186250625E+01  3.035005493E+02
1.187724704E+01  2.968546753E+02
1.189198783E+01  2.920447083E+02
1.190672863E+01  2.889308472E+02
1.192146942E+01  2.857639771E+02
1.193621021E+01  2.838103333E+02
1.195095100E+01  2.820798340E+02
1.196569179E+01  2.817245483E+02
1.198043259E+01  2.812045898E+02
1.199517338E+01  2.809865112E+02
1.200991417E+01  2.807976685E+02
1.202465496E+01  2.810061035E+02
1.203939575E+01  2.810026550E+02
1.205413655E+01  2.809011536E+02
1.206887734E+01  2.806521912E+02
1.208361813E+01  2.809002991E+02
1.209835892E+01  2.802208862E+02
1.211309972E+01  2.801892090E+02
1.212784051E+01  2.800885010E+02
1.214258130E+01  2.805344543E+02
1.215732209E+01  2.805542908E+02
1.217206288E+01  2.807491150E+02
1.218680368E+01  2.809858704E+02
1.220154447E+01  2.810009155E+02
1.221628526E+01  2.809134216E+02
1.223102605E+01  2.813333130E+02
1.224576684E+01  2.812038269E+02
1.226050764E+01  2.807870789E+02
1.227524843E+01  2.810843811E+02
1.228998922E+01  2.814021606E+02
1.230473001E+01  2.812160645E+02
1.231947080E+01  2.805783081E+02
1.233421160E+01  2.807390442E+02
1.234895239E+01  2.808298950E+02
1.236369318E+01  2.806377869E+02
1.237843397E+01  2.809095459E+02
1.239317477E+01  2.813748779E+02
1.240791556E+01  2.820939331E+02
1.242265635E+01  2.832389832E+02
1.243739714E+01  2.838901978E+02
1.245213793E+01  2.837882996E+02
1.246687873E+01  2.833456726E+02
1.248161952E+01  2.828387451E+02
1.249636031E+01  2.838567505E+02
1.251110110E+01  2.850373840E+02
1.252584189E+01  2.862604065E+02
1.254058269E+01  2.865202942E+02
1.255532348E+01  2.861885071E+02
1.257006427E+01  2.863279419E+02
1.258480506E+01  2.872154846E+02
1.259954585E+01  2.878792114E+02
1.261428665E+01  2.881716309E+02
1.262902744E+01  2.880202332E+02
1.264376823E+01  2.880932617E+02
1.265850902E+01  2.883244934E+02
1.267324982E+01  2.881579895E+02
1.268799061E+01  2.879226074E+02
1.270273140E+01  2.872708740E+02
1.271747219E+01  2.877640381E+02
1.273221298E+01  2.887594910E+02
1.274695378E+01  2.893482971E+02
1.276169457E+01  2.896955566E+02
1.277643536E+01  2.900275269E+02
1.279117615E+01  2.903469543E+02
1.280591694E+01  2.909376831E+02
1.282065774E+01  2.911139526E+02
1.283539853E+01  2.903757019E+02
1.285013932E+01  2.901334839E+02
1.286488011E+01  2.908100586E+02
1.287962091E+01  2.918721008E+02
1.289436170E+01  2.931013794E+02
1.290910249E+01  2.941956177E+02
1.292384328E+01  2.953270874E+02
1.293858407E+01  2.958982849E+02
1.295332487E+01  2.960361633E+02
1.296806566E+01  2.964751892E+02
1.298280645E+01  2.972218323E+02
1.299754724E+01  2.991427307E+02
1.301228803E+01  3.011265564E+02
1.302702883E+01  3.028865662E+02
1.304176962E+01  3.043627319E+02
1.305651041E+01  3.055697021E+02
1.307125120E+01  3.068691711E+02
1.308599199E+01  3.089380798E+02
1.310073279E+01  3.109365540E+02
1.311547358E+01  3.126884766E+02
1.313021437E+01  3.148692932E+02
1.314495516E+01  3.181213074E+02
1.315969596E+01  3.214702148E+02
1.317443675E+01  3.262829285E+02
1.318917754E+01  3.312394409E+02
1.320391833E+01  3.364224854E+02
1.321865912E+01  3.432213135E+02
1.323339992E+01  3.511416016E+02
1.324814071E+01  3.626430054E+02
1.326288150E+01  3.739695435E+02
1.327762229E+01  3.863410034E+02
1.329236308E+01  3.971080017E+02
1.330710388E+01  4.065406799E+02
1.332184467E+01  4.136577454E+02
1.333658546E+01  4.161654663E+02
1.335132625E+01  4.158249512E+02
1.336606704E+01  4.127103271E+02
1.338080784E+01  4.052795105E+02
1.339554863E+01  3.913603516E+02
1.341028942E+01  3.752186584E+02
1.342503021E+01  3.608480530E+02
1.343977101E+01  3.497993774E+02
1.345451180E+01  3.397174683E+02
1.346925259E+01  3.324586792E+02
1.348399338E+01  3.261480713E+02
1.349873417E+01  3.219983215E+02
1.351347497E+01  3.195166931E+02
1.352821576E+01  3.177644348E+02
1.354295655E+01  3.173107300E+02
1.355769734E+01  3.176552734E+02
1.357243813E+01  3.197358093E+02
1.358717893E+01  3.235410767E+02
1.360191972E+01  3.279529724E+02
1.361666051E+01  3.269699402E+02
1.363140130E+01  3.181325378E+02
1.364614209E+01  3.079020996E+02
1.366088289E+01  3.035615845E+02
1.367562368E+01  3.044144592E+02
1.369036447E+01  3.052436829E+02
1.370510526E+01  3.059172974E+02
1.371984606E+01  3.081919861E+02
1.373458685E+01  3.097959900E+02
1.374932764E+01  3.118929443E+02
1.376406843E+01  3.131888733E+02
1.377880922E+01  3.154701538E+02
1.379355002E+01  3.163218384E+02
1.380829081E+01  3.176295776E+02
1.382303160E+01  3.189335022E+02
1.383777239E+01  3.203850708E+02
1.385251318E+01  3.214934082E+02
1.386725398E+01  3.237654724E+02
1.388199477E+01  3.266150513E+02
1.389673556E+01  3.307432861E+02
1.391147635E+01  3.335169678E+02
1.392621715E+01  3.365399780E+02
1.394095794E+01  3.383325195E+02
1.395569873E+01  3.373336182E+02
1.397043952E+01  3.348262024E+02
1.398518031E+01  3.313622131E+02
1.399992111E+01  3.286149292E+02
1.401466190E+01  3.248917236E+02
1.402940269E+01  3.220272522E+02
1.404414348E+01  3.198881226E+02
1.405888427E+01  3.176649170E+02
1.407362507E+01  3.166974487E+02
1.408836586E+01  3.158389893E+02
1.410310665E+01  3.153689270E+02
1.411784744E+01  3.151264648E+02
1.413258823E+01  3.208227844E+02
1.414732903E+01  3.248733826E+02
1.416206982E+01  3.290830688E+02
1.417681061E+01  3.281423035E+02
1.419155140E+01  3.272841187E+02
1.420629220E+01  3.265311584E+02
1.422103299E+01  3.257820129E+02
1.423577378E+01  3.245589905E+02
1.425051457E+01  3.239960327E+02
1.426525536E+01  3.232660217E+02
1.427999616E+01  3.223359375E+02
1.429473695E+01  3.216273804E+02
1.430947774E+01  3.210653381E+02
1.432421853E+01  3.205675659E+02
1.433895932E+01  3.208097839E+02
1.435370012E+01  3.209074097E+02
1.436844091E+01  3.209993896E+02
1.438318170E+01  3.214018860E+02
1.439792249E+01  3.222845764E+02
1.441266328E+01  3.225767822E+02
1.442740408E+01  3.224172668E+02
1.444214487E+01  3.228329163E+02
1.445688566E+01  3.233054810E+02
1.447162645E+01  3.242973022E+02
1.448636725E+01  3.259859314E+02
1.450110804E+01  3.276259155E+02
1.451584883E+01  3.294753723E+02
1.453058962E+01  3.312530823E+02
1.454533041E+01  3.349389648E+02
1.456007121E+01  3.390822144E+02
1.457481200E+01  3.438478088E+02
1.458955279E+01  3.490309143E+02
1.460429358E+01  3.542492981E+02
1.461903437E+01  3.609599915E+02
1.463377517E+01  3.682734375E+02
1.464851596E+01  3.766337585E+02
1.466325675E+01  3.844163818E+02
1.467799754E+01  3.900851440E+02
1.469273833E+01  3.939543457E+02
1.470747913E+01  3.950708923E+02
1.472221992E+01  3.948105469E+02
1.473696071E+01  3.923424988E+02
1.475170150E+01  3.875511169E+02
1.476644230E+01  3.820094910E+02
1.478118309E+01  3.743627319E+02
1.479592388E+01  3.654080811E+02
1.481066467E+01  3.596662292E+02
1.482540546E+01  3.549067383E+02
1.484014626E+01  3.517255249E+02
1.485488705E+01  3.479662476E+02
1.486962784E+01  3.440752563E+02
1.488436863E+01  3.405263672E+02
1.489910942E+01  3.376929626E+02
1.491385022E+01  3.362639160E+02
1.492859101E+01  3.357769165E+02
1.494333180E+01  3.352925415E+02
1.495807259E+01  3.345220032E+02
1.497281339E+01  3.335245361E+02
1.498755418E+01  3.329910889E+02
1.500229497E+01  3.325890808E+02
1.501703576E+01  3.326489563E+02
1.503177655E+01  3.334279785E+02
1.504651735E+01  3.349303894E+02
1.506125814E+01  3.360526123E+02
1.507599893E+01  3.369094849E+02
1.509073972E+01  3.373148193E+02
1.510548051E+01  3.382084351E+02
1.512022131E+01  3.391781616E+02
1.513496210E+01  3.403620300E+02
1.514970289E+01  3.410225220E+02
1.516444368E+01  3.413468323E+02
1.517918447E+01  3.422425232E+02
1.519392527E+01  3.423578186E+02
1.520866606E+01  3.430823059E+02
1.522340685E+01  3.421763611E+02
1.523814764E+01  3.417687988E+02
1.525288844E+01  3.410011597E+02
1.526762923E+01  3.399285889E+02
1.528237002E+01  3.378340759E+02
1.529711081E+01  3.354327393E+02
1.531185160E+01  3.327121887E+02
1.532659240E+01  3.308522339E+02
1.534133319E+01  3.289610291E+02
1.535607398E+01  3.268327637E+02
1.537081477E+01  3.255130310E+02
1.538555556E+01  3.236743774E+02
1.540029636E+01  3.221011963E+02
1.541503715E+01  3.210270996E+02
1.542977794E+01  3.207383728E+02
1.544451873E+01  3.208221436E+02
1.545925952E+01  3.200326233E+02
1.547400032E+01  3.195823669E+02
1.548874111E+01  3.192667236E+02
1.550348190E+01  3.183574829E+02
1.551822269E+01  3.173724670E+02
1.553296349E+01  3.170490417E+02
1.554770428E+01  3.172503052E+02
1.556244507E+01  3.171517639E+02
1.557718586E+01  3.162777100E+02
1.559192665E+01  3.158609009E+02
1.560666745E+01  3.158715210E+02
1.562140824E+01  3.160657959E+02
1.563614903E+01  3.163414917E+02
1.565088982E+01  3.166257019E+02
1.566563061E+01  3.168408508E+02
1.568037141E+01  3.164617615E+02
1.569511220E+01  3.160588074E+02
1.570985299E+01  3.155656128E+02
1.572459378E+01  3.156856384E+02
1.573933457E+01  3.160376587E+02
1.575407537E+01  3.161733704E+02
1.576881616E+01  3.161339417E+02
1.578355695E+01  3.160612183E+02
1.579829774E+01  3.169678345E+02
1.581303854E+01  3.175523682E+02
1.582777933E+01  3.178122253E+02
1.584252012E+01  3.175717163E+02
1.585726091E+01  3.173295593E+02
1.587200170E+01  3.172843628E+02
1.588674250E+01  3.172499390E+02
1.590148329E+01  3.176528931E+02
1.591622408E+01  3.177720032E+02
1.593096487E+01  3.178959045E+02
1.594570566E+01  3.178566284E+02
1.596044646E+01  3.181168213E+02
1.597518725E+01  3.184909058E+02
1.598992804E+01  3.183098145E+02
1.600466883E+01  3.181766357E+02
1.601940963E+01  3.189411316E+02
1.603415042E+01  3.193085938E+02
1.604889121E+01  3.189419250E+02
1.606363200E+01  3.187644348E+02
1.607837279E+01  3.188099060E+02
1.609311359E+01  3.195382080E+02
1.610785438E+01  3.191193542E+02
1.612259517E+01  3.193668823E+02
1.613733596E+01  3.192941895E+02
1.615207675E+01  3.202999268E+02
1.616681755E+01  3.212690430E+02
1.618155834E+01  3.214621887E+02
1.619629913E+01  3.209481506E+02
1.621103992E+01  3.212771606E+02
1.622578071E+01  3.218843384E+02
1.624052151E+01  3.221539612E+02
1.625526230E+01  3.220454712E+02
1.627000309E+01  3.223025818E+02
1.628474388E+01  3.217588501E+02
1.629948468E+01  3.216530151E+02
1.631422547E+01  3.211941223E+02
1.632896626E+01  3.214415283E+02
1.634370705E+01  3.213861389E+02
1.635844784E+01  3.212937012E+02
1.637318864E+01  3.214373474E+02
1.638792943E+01  3.220040588E+02
1.640267022E+01  3.216953735E+02
1.641741101E+01  3.218207703E+02
1.643215180E+01  3.216513672E+02
1.644689260E+01  3.212491760E+02
1.646163339E+01  3.203056030E+02
1.647637418E+01  3.200669250E+02
1.649111497E+01  3.203543396E+02
1.650585576E+01  3.205585938E+02
1.652059656E+01  3.203446960E+02
1.653533735E+01  3.202514343E+02
1.655007814E+01  3.202671204E+02
1.656481893E+01  3.197604370E+02
1.657955973E+01  3.195366516E+02
1.659430052E+01  3.199383240E+02
1.660904131E+01  3.197164917E+02
1.662378210E+01  3.196713257E+02
1.663852289E+01  3.196112061E+02
1.665326369E+01  3.202777710E+02
1.666800448E+01  3.206715088E+02
1.668274527E+01  3.202752380E+02
1.669748606E+01  3.198093567E+02
1.671222685E+01  3.195377197E+02
1.672696765E+01  3.197458191E+02
1.674170844E+01  3.200104065E+02
1.675644923E+01  3.199291077E+02
1.677119002E+01  3.201165771E+02
1.678593081E+01  3.206100769E+02
1.680067161E+01  3.207066345E+02
1.681541240E+01  3.209729919E+02
1.683015319E+01  3.209779663E+02
1.684489398E+01  3.206562195E+02
1.685963478E+01  3.201435852E+02
1.687437557E+01  3.203627014E+02
1.688911636E+01  3.206685791E+02
1.690385715E+01  3.220485535E+02
1.691859794E+01  3.243171387E+02
1.693333874E+01  3.256397705E+02
1.694807953E+01  3.269219666E+02
1.696282032E+01  3.280321350E+02
1.697756111E+01  3.294299622E+02
1.699230190E+01  3.309268799E+02
1.700704270E+01  3.315939026E+02
1.702178349E+01  3.322926025E+02
1.703652428E+01  3.325622559E+02
1.705126507E+01  3.332530823E+02
1.706600587E+01  3.338412781E+02
1.708074666E+01  3.337955322E+02
1.709548745E+01  3.328084412E+02
1.711022824E+01  3.312400513E+02
1.712496903E+01  3.296994324E+02
1.713970983E+01  3.274647522E+02
1.715445062E+01  3.268155823E+02
1.716919141E+01  3.259099426E+02
1.718393220E+01  3.255827332E+02
1.719867299E+01  3.251113892E+02
1.721341379E+01  3.253753357E+02
1.722815458E+01  3.253148499E+02
1.724289537E+01  3.245085144E+02
1.725763616E+01  3.230073853E+02
1.727237695E+01  3.231287537E+02
1.728711775E+01  3.228173523E+02
1.730185854E+01  3.227237854E+02
1.731659933E+01  3.228731995E+02
1.733134012E+01  3.232877502E+02
1.734608092E+01  3.233966370E+02
1.736082171E+01  3.238584900E+02
1.737556250E+01  3.241773376E+02
1.739030329E+01  3.240419006E+02
1.740504408E+01  3.236309204E+02
1.741978488E+01  3.230225830E+02
1.743452567E+01  3.226247864E+02
1.744926646E+01  3.221910706E+02
1.746400725E+01  3.222845459E+02
1.747874804E+01  3.222870483E+02
1.749348884E+01  3.219780579E+02
1.750822963E+01  3.211015625E+02
1.752297042E+01  3.204367676E+02
1.753771121E+01  3.206849670E+02
1.755245200E+01  3.209454956E+02
1.756719280E+01  3.209404602E+02
1.758193359E+01  3.203037415E+02
1.759667438E+01  3.211888428E+02
1.761141517E+01  3.210740356E+02
1.762615597E+01  3.220804443E+02
1.764089676E+01  3.227056885E+02
1.765563755E+01  3.229501953E+02
1.767037834E+01  3.219652100E+02
1.768511913E+01  3.215701294E+02
1.769985993E+01  3.212778625E+02
1.771460072E+01  3.218889160E+02
1.772934151E+01  3.213699646E+02
1.774408230E+01  3.216035156E+02
1.775882309E+01  3.220842896E+02
1.777356389E+01  3.225114136E+02
1.778830468E+01  3.233985596E+02
1.780304547E+01  3.230873718E+02
1.781778626E+01  3.240521545E+02
1.783252705E+01  3.244717712E+02
1.784726785E+01  3.253247375E+02
1.786200864E+01  3.256960449E+02
1.787674943E+01  3.261787109E+02
1.789149022E+01  3.275098572E+02
1.790623102E+01  3.289606323E+02
1.792097181E+01  3.301977539E+02
1.793571260E+01  3.316963196E+02
1.795045339E+01  3.327840576E+02
1.796519418E+01  3.330469360E+02
1.797993498E+01  3.342485352E+02
1.799467577E+01  3.351218262E+02
1.800941656E+01  3.361808167E+02
1.802415735E+01  3.363370972E+02
1.803889814E+01  3.367081604E+02
1.805363894E+01  3.372837219E+02
1.806837973E+01  3.377982788E+02
1.808312052E+01  3.376875000E+02
1.809786131E+01  3.375811768E+02
1.811260211E+01  3.371596985E+02
1.812734290E+01  3.366491699E+02
1.814208369E+01  3.355500488E+02
1.815682448E+01  3.343973083E+02
1.817156527E+01  3.337347717E+02
1.818630607E+01  3.334278870E+02
1.820104686E+01  3.336928406E+02
1.821578765E+01  3.336125183E+02
1.823052844E+01  3.334691162E+02
1.824526923E+01  3.324060974E+02
1.826001003E+01  3.319988708E+02
1.827475082E+01  3.317451172E+02
1.828949161E+01  3.307300415E+02
1.830423240E+01  3.302392883E+02
1.831897319E+01  3.306751099E+02
1.833371399E+01  3.313107605E+02
1.834845478E+01  3.308045349E+02
1.836319557E+01  3.300921936E+02
1.837793636E+01  3.296338196E+02
1.839267716E+01  3.292986450E+02
1.840741795E+01  3.282348633E+02
1.842215874E+01  3.281843262E+02
1.843689953E+01  3.274683533E+02
1.845164032E+01  3.278842163E+02
1.846638112E+01  3.268881226E+02
1.848112191E+01  3.269994812E+02
1.849586270E+01  3.269602661E+02
1.851060349E+01  3.265821838E+02
1.852534428E+01  3.262823792E+02
1.854008508E+01  3.266315308E+02
1.855482587E+01  3.273941956E+02
1.856956666E+01  3.280664368E+02
1.858430745E+01  3.278299255E+02
1.859904824E+01  3.276190796E+02
1.861378904E+01  3.272074890E+02
1.862852983E+01  3.273353271E+02
1.864327062E+01  3.276237793E+02
1.865801141E+01  3.277987366E+02
1.867275221E+01  3.277852783E+02
1.868749300E+01  3.274243774E+02
1.870223379E+01  3.282482605E+02
1.871697458E+01  3.278986511E+02
1.873171537E+01  3.280037842E+02
1.874645617E+01  3.272113953E+02
1.876119696E+01  3.262331848E+02
1.877593775E+01  3.252375488E+02
1.879067854E+01  3.251456604E+02
1.880541933E+01  3.258605957E+02
1.882016013E+01  3.257982178E+02
1.883490092E+01  3.250854492E+02
1.884964171E+01  3.243231812E+02
1.886438250E+01  3.232562866E+02
1.887912329E+01  3.218607483E+02
1.889386409E+01  3.216808167E+02
1.890860488E+01  3.213583069E+02
1.892334567E+01  3.213175354E+02
1.893808646E+01  3.207390137E+02
1.895282726E+01  3.209659424E+02
1.896756805E+01  3.213373718E+02
1.898230884E+01  3.215473022E+02
1.899704963E+01  3.205499268E+02
1.901179042E+01  3.199647522E+02
1.902653122E+01  3.186683960E+02
1.904127201E+01  3.176477966E+02
1.905601280E+01  3.170549622E+02
1.907075359E+01  3.176375427E+02
1.908549438E+01  3.182138672E+02
1.910023518E+01  3.183291931E+02
1.911497597E+01  3.182561951E+02
1.912971676E+01  3.182894592E+02
1.914445755E+01  3.183154602E+02
1.915919834E+01  3.183608093E+02
1.917393914E+01  3.197293091E+02
1.918867993E+01  3.204125977E+02
1.920342072E+01  3.199555664E+02
1.921816151E+01  3.188571777E+02
1.923290231E+01  3.175257263E+02
1.924764310E+01  3.171057129E+02
1.926238389E+01  3.172860718E+02
1.927712468E+01  3.176248169E+02
1.929186547E+01  3.181842346E+02
1.930660627E+01  3.180674133E+02
1.932134706E+01  3.180062866E+02
1.933608785E+01  3.176466064E+02
1.935082864E+01  3.176979980E+02
1.936556943E+01  3.173825684E+02
1.938031023E+01  3.175687256E+02
1.939505102E+01  3.170592041E+02
1.940979181E+01  3.177061462E+02
1.942453260E+01  3.182036743E+02
1.943927340E+01  3.181237793E+02
1.945401419E+01  3.179637146E+02
1.946875498E+01  3.170072937E+02
1.948349577E+01  3.167734985E+02
1.949823656E+01  3.167219849E+02
1.951297736E+01  3.165780029E+02
1.952771815E+01  3.171217041E+02
1.954245894E+01  3.175027771E+02
1.955719973E+01  3.180025940E+02
1.957194052E+01  3.177795715E+02
1.958668132E+01  3.164174805E+02
1.960142211E+01  3.158599243E+02
1.961616290E+01  3.157483215E+02
1.963090369E+01  3.166464539E+02
1.964564448E+01  3.176067505E+02
1.966038528E+01  3.186657104E+02
1.967512607E+01  3.192111816E+02
1.968986686E+01  3.182051697E+02
1.970460765E+01  3.171655579E+02
1.971934845E+01  3.176598206E+02
1.973408924E+01  3.178758545E+02
1.974883003E+01  3.182557373E+02
1.976357082E+01  3.180729980E+02
1.977831161E+01  3.180264587E+02
1.979305241E+01  3.176785278E+02
1.980779320E+01  3.181309204E+02
1.982253399E+01  3.182864075E+02
1.983727478E+01  3.191249084E+02
1.985201557E+01  3.190548401E+02
1.986675637E+01  3.192426758E+02
1.988149716E+01  3.188086548E+02
1.989623795E+01  3.187814941E+02
1.991097874E+01  3.189597168E+02
1.992571953E+01  3.190672607E+02
1.994046033E+01  3.189360657E+02
1.995520112E+01  3.174585266E+02
1.996994191E+01  3.170191956E+02
1.998468270E+01  3.172373047E+02
1.999942350E+01  3.190563354E+02
2.001416429E+01  3.202438660E+02
2.002890508E+01  3.201502686E+02
2.004364587E+01  3.202023621E+02
2.005838666E+01  3.210316467E+02
2.007312746E+01  3.210893555E+02
2.008786825E+01  3.217901917E+02
2.010260904E+01  3.228090515E+02
2.011734983E+01  3.244779663E+02
2.013209062E+01  3.252332458E+02
2.014683142E+01  3.264092102E+02
2.016157221E+01  3.287936707E+02
2.017631300E+01  3.304646301E+02
2.019105379E+01  3.320370483E+02
2.020579458E+01  3.340864258E+02
2.022053538E+01  3.368391113E+02
2.023527617E+01  3.413918152E+02
2.025001696E+01  3.458412476E+02
2.026475775E+01  3.509786377E+02
2.027949855E+01  3.565694580E+02
2.029423934E+01  3.629123230E+02
2.030898013E+01  3.688497009E+02
2.032372092E+01  3.729285889E+02
2.033846171E+01  3.757237549E+02
2.035320251E+01  3.778884277E+02
2.036794330E+01  3.797276917E+02
2.038268409E+01  3.799613647E+02
2.039742488E+01  3.781896667E+02
2.041216567E+01  3.750170898E+02
2.042690647E+01  3.713557739E+02
2.044164726E+01  3.668026428E+02
2.045638805E+01  3.615101929E+02
2.047112884E+01  3.557124939E+02
2.048586964E+01  3.507723389E+02
2.050061043E+01  3.451836243E+02
2.051535122E+01  3.406968689E+02
2.053009201E+01  3.381951599E+02
2.054483280E+01  3.365787354E+02
2.055957360E+01  3.356437073E+02
2.057431439E+01  3.343595886E+02
2.058905518E+01  3.329351501E+02
2.060379597E+01  3.317136536E+02
2.061853676E+01  3.312925110E+02
2.063327756E+01  3.319017944E+02
2.064801835E+01  3.326271973E+02
2.066275914E+01  3.323117981E+02
2.067749993E+01  3.311991882E+02
2.069224072E+01  3.305417480E+02
2.070698152E+01  3.294903564E+02
2.072172231E+01  3.281592407E+02
2.073646310E+01  3.270384216E+02
2.075120389E+01  3.265111084E+02
2.076594469E+01  3.258051453E+02
2.078068548E+01  3.252890625E+02
2.079542627E+01  3.251759338E+02
2.081016706E+01  3.250440979E+02
2.082490785E+01  3.246564331E+02
2.083964865E+01  3.234400330E+02
2.085438944E+01  3.229555664E+02
2.086913023E+01  3.232272949E+02
2.088387102E+01  3.232672119E+02
2.089861181E+01  3.239498291E+02
2.091335261E+01  3.235347900E+02
2.092809340E+01  3.231609192E+02
2.094283419E+01  3.233148499E+02
2.095757498E+01  3.230395813E+02
2.097231577E+01  3.224746094E+02
2.098705657E+01  3.222681274E+02
2.100179736E+01  3.219137573E+02
2.101653815E+01  3.209583740E+02
2.103127894E+01  3.201613464E+02
2.104601974E+01  3.197912598E+02
2.106076053E+01  3.199949646E+02
2.107550132E+01  3.195734558E+02
2.109024211E+01  3.197788391E+02
2.110498290E+01  3.195095520E+02
2.111972370E+01  3.195263062E+02
2.113446449E+01  3.192637024E+02
2.114920528E+01  3.184082336E+02
2.116394607E+01  3.182372437E+02
2.117868686E+01  3.185268555E+02
2.119342766E+01  3.182519226E+02
2.120816845E+01  3.182305298E+02
2.122290924E+01  3.182745056E+02
2.123765003E+01  3.187448425E+02
2.125239082E+01  3.186023865E+02
2.126713162E+01  3.186081848E+02
2.128187241E+01  3.185396729E+02
2.129661320E+01  3.188642578E+02
2.131135399E+01  3.192329102E+02
2.132609479E+01  3.198233948E+02
2.134083558E+01  3.197023621E+02
2.135557637E+01  3.195158386E+02
2.137031716E+01  3.186559448E+02
2.138505795E+01  3.176815796E+02
2.139979875E+01  3.182074280E+02
2.141453954E+01  3.183055115E+02
2.142928033E+01  3.182282410E+02
2.144402112E+01  3.184822998E+02
2.145876191E+01  3.193394470E+02
2.147350271E+01  3.201252136E+02
2.148824350E+01  3.196999817E+02
2.150298429E+01  3.202889404E+02
2.151772508E+01  3.200935669E+02
2.153246588E+01  3.198866577E+02
2.154720667E+01  3.192916260E+02
2.156194746E+01  3.198128967E+02
2.157668825E+01  3.213460999E+02
2.159142904E+01  3.217404480E+02
2.160616984E+01  3.216323547E+02
2.162091063E+01  3.224722900E+02
2.163565142E+01  3.230562134E+02
2.165039221E+01  3.235093384E+02
2.166513300E+01  3.227440186E+02
2.167987380E+01  3.214139404E+02
2.169461459E+01  3.214362488E+02
2.170935538E+01  3.227998657E+02
2.172409617E+01  3.238465881E+02
2.173883696E+01  3.237814636E+02
2.175357776E+01  3.241517029E+02
2.176831855E+01  3.240701294E+02
2.178305934E+01  3.236721191E+02
2.179780013E+01  3.227644348E+02
2.181254093E+01  3.222614441E+02
2.182728172E+01  3.222785645E+02
2.184202251E+01  3.218868713E+02
2.185676330E+01  3.214226074E+02
2.187150409E+01  3.213151245E+02
2.188624489E+01  3.218662109E+02
2.190098568E+01  3.223487854E+02
2.191572647E+01  3.217563782E+02
2.193046726E+01  3.221574402E+02
2.194520805E+01  3.223007812E+02
2.195994885E+01  3.223200989E+02
2.197468964E+01  3.224560547E+02
2.198943043E+01  3.222186890E+02
2.200417122E+01  3.227233582E+02
2.201891201E+01  3.226261902E+02
2.203365281E+01  3.226761169E+02
2.204839360E+01  3.210349731E+02
2.206313439E+01  3.200174866E+02
2.207787518E+01  3.195422974E+02
2.209261598E+01  3.197631531E+02
2.210735677E+01  3.207538452E+02
2.212209756E+01  3.212477417E+02
2.213683835E+01  3.211147766E+02
2.215157914E+01  3.210744629E+02
2.216631994E+01  3.220864563E+02
2.218106073E+01  3.233779602E+02
2.219580152E+01  3.239918518E+02
2.221054231E+01  3.250125122E+02
2.222528310E+01  3.252023315E+02
2.224002390E+01  3.257677307E+02
2.225476469E+01  3.280703125E+02
2.226950548E+01  3.288699951E+02
2.228424627E+01  3.289035950E+02
2.229898706E+01  3.295794373E+02
2.231372786E+01  3.301897583E+02
2.232846865E+01  3.311462402E+02
2.234320944E+01  3.312825012E+02
2.235795023E+01  3.322235107E+02
2.237269103E+01  3.338459167E+02
2.238743182E+01  3.348653259E+02
2.240217261E+01  3.350018005E+02
2.241691340E+01  3.364483032E+02
2.243165419E+01  3.368963318E+02
2.244639499E+01  3.371536865E+02
2.246113578E+01  3.375629883E+02
2.247587657E+01  3.388234253E+02
2.249061736E+01  3.389017029E+02
2.250535815E+01  3.391231079E+02
2.252009895E+01  3.401978760E+02
2.253483974E+01  3.412920837E+02
2.254958053E+01  3.421467590E+02
2.256432132E+01  3.424619141E+02
2.257906212E+01  3.416500854E+02
2.259380291E+01  3.420957947E+02
2.260854370E+01  3.427454834E+02
2.262328449E+01  3.425797729E+02
2.263802528E+01  3.420686340E+02
2.265276608E+01  3.406209412E+02
2.266750687E+01  3.384487305E+02
2.268224766E+01  3.365584106E+02
2.269698845E+01  3.355189819E+02
2.271172924E+01  3.345628052E+02
2.272647004E+01  3.324430847E+02
2.274121083E+01  3.310553284E+02
2.275595162E+01  3.313716431E+02
2.277069241E+01  3.324111938E+02
2.278543320E+01  3.314599304E+02
2.280017400E+01  3.303653870E+02
2.281491479E+01  3.300986633E+02
2.282965558E+01  3.301828613E+02
2.284439637E+01  3.300513000E+02
2.285913717E+01  3.292488098E+02
2.287387796E+01  3.286868286E+02
2.288861875E+01  3.288309937E+02
2.290335954E+01  3.287682190E+02
2.291810033E+01  3.292864685E+02
2.293284113E+01  3.300402832E+02
2.294758192E+01  3.306044312E+02
2.296232271E+01  3.306614685E+02
2.297706350E+01  3.304669495E+02
2.299180429E+01  3.315363464E+02
2.300654509E+01  3.330482788E+02
2.302128588E+01  3.341901550E+02
2.303602667E+01  3.345671387E+02
2.305076746E+01  3.356866150E+02
2.306550825E+01  3.370031128E+02
2.308024905E+01  3.374651184E+02
2.309498984E+01  3.377492981E+02
2.310973063E+01  3.393117676E+02
2.312447142E+01  3.415827637E+02
2.313921222E+01  3.404258728E+02
2.315395301E+01  3.398823547E+02
2.316869380E+01  3.398229675E+02
2.318343459E+01  3.424137878E+02
2.319817538E+01  3.448122864E+02
2.321291618E+01  3.485865173E+02
2.322765697E+01  3.507012024E+02
2.324239776E+01  3.529100342E+02
2.325713855E+01  3.551730042E+02
2.327187934E+01  3.588196716E+02
2.328662014E+01  3.622835083E+02
2.330136093E+01  3.664617004E+02
2.331610172E+01  3.682601624E+02
2.333084251E+01  3.706412048E+02
2.334558330E+01  3.706280212E+02
2.336032410E+01  3.696148682E+02
2.337506489E+01  3.676275330E+02
2.338980568E+01  3.656177673E+02
2.340454647E+01  3.620239868E+02
2.341928727E+01  3.586293945E+02
2.343402806E+01  3.568125000E+02
2.344876885E+01  3.561665039E+02
2.346350964E+01  3.547795715E+02
2.347825043E+01  3.544156799E+02
2.349299123E+01  3.535383911E+02
2.350773202E+01  3.537097778E+02
2.352247281E+01  3.541052856E+02
2.353721360E+01  3.545916443E+02
2.355195439E+01  3.538419800E+02
2.356669519E+01  3.523989258E+02
2.358143598E+01  3.510429077E+02
2.359617677E+01  3.490510254E+02
2.361091756E+01  3.461838074E+02
2.362565836E+01  3.438895569E+02
2.364039915E+01  3.434407654E+02
2.365513994E+01  3.433261719E+02
2.366988073E+01  3.430048828E+02
2.368462152E+01  3.415012817E+02
2.369936232E+01  3.411269836E+02
2.371410311E+01  3.405951538E+02
2.372884390E+01  3.403629761E+02
2.374358469E+01  3.404804993E+02
2.375832548E+01  3.417286377E+02
2.377306628E+01  3.418816833E+02
2.378780707E+01  3.410088501E+02
2.380254786E+01  3.410981750E+02
2.381728865E+01  3.423883667E+02
2.383202944E+01  3.434950867E+02
2.384677024E+01  3.431419067E+02
2.386151103E+01  3.430167847E+02
2.387625182E+01  3.436788025E+02
2.389099261E+01  3.446142578E+02
2.390573341E+01  3.443197937E+02
2.392047420E+01  3.442331238E+02
2.393521499E+01  3.451684875E+02
2.394995578E+01  3.454502258E+02
2.396469657E+01  3.461633911E+02
2.397943737E+01  3.474362183E+02
2.399417816E+01  3.479434509E+02
2.400891895E+01  3.480572205E+02
2.402365974E+01  3.479957886E+02
2.403840053E+01  3.478557434E+02
2.405314133E+01  3.485126343E+02
2.406788212E+01  3.494619751E+02
2.408262291E+01  3.493886414E+02
2.409736370E+01  3.479575195E+02
2.411210449E+01  3.464048157E+02
2.412684529E+01  3.450455322E+02
2.414158608E+01  3.444962769E+02
2.415632687E+01  3.448543396E+02
2.417106766E+01  3.444160767E+02
2.418580846E+01  3.438744202E+02
2.420054925E+01  3.420064087E+02
2.421529004E+01  3.414653015E+02
2.423003083E+01  3.411632996E+02
2.424477162E+01  3.413286743E+02
2.425951242E+01  3.425646667E+02
2.427425321E+01  3.446351624E+02
2.428899400E+01  3.453298950E+02
2.430373479E+01  3.466509094E+02
2.431847558E+01  3.472204895E+02
2.433321638E+01  3.479827881E+02
2.434795717E+01  3.496500549E+02
2.436269796E+01  3.520730591E+02
2.437743875E+01  3.545191345E+02
2.439217954E+01  3.557284546E+02
2.440692034E+01  3.563349609E+02
2.442166113E+01  3.563991089E+02
2.443640192E+01  3.557784729E+02
2.445114271E+01  3.550874329E+02
2.446588351E+01  3.533836975E+02
2.448062430E+01  3.519581909E+02
2.449536509E+01  3.493628235E+02
2.451010588E+01  3.474447021E+02
2.452484667E+01  3.449086914E+02
2.453958747E+01  3.413304749E+02
2.455432826E+01  3.379645691E+02
2.456906905E+01  3.364499512E+02
2.458380984E+01  3.356614685E+02
2.459855063E+01  3.351034241E+02
2.461329143E+01  3.337869263E+02
2.462803222E+01  3.317424927E+02
2.464277301E+01  3.309014282E+02
2.465751380E+01  3.308082886E+02
2.467225460E+01  3.306494446E+02
2.468699539E+01  3.302784119E+02
2.470173618E+01  3.298198853E+02
2.471647697E+01  3.291825256E+02
2.473121776E+01  3.287299805E+02
2.474595856E+01  3.293524780E+02
2.476069935E+01  3.302797852E+02
2.477544014E+01  3.298595276E+02
2.479018093E+01  3.289768066E+02
2.480492172E+01  3.283340454E+02
2.481966252E+01  3.285381775E+02
2.483440331E+01  3.278620605E+02
2.484914410E+01  3.274587097E+02
2.486388489E+01  3.275187683E+02
2.487862568E+01  3.274229126E+02
2.489336648E+01  3.273619995E+02
2.490810727E+01  3.266469727E+02
2.492284806E+01  3.263895264E+02
2.493758885E+01  3.260835266E+02
2.495232965E+01  3.267812805E+02
2.496707044E+01  3.280418396E+02
2.498181123E+01  3.280522766E+02
2.499655202E+01  3.265643005E+02
2.501129281E+01  3.263850708E+02
2.502603361E+01  3.270750732E+02
2.504077440E+01  3.269358215E+02
2.505551519E+01  3.264837952E+02
2.507025598E+01  3.267553711E+02
2.508499677E+01  3.279290771E+02
2.509973757E+01  3.280088196E+02
2.511447836E+01  3.281295166E+02
2.512921915E+01  3.289478149E+02
2.514395994E+01  3.277426453E+02
2.515870073E+01  3.268515320E+02
2.517344153E+01  3.268410034E+02
2.518818232E+01  3.287080078E+02
2.520292311E+01  3.283696594E+02
2.521766390E+01  3.281033936E+02
2.523240470E+01  3.279942017E+02
2.524714549E+01  3.297925415E+02
2.526188628E+01  3.316853027E+02
2.527662707E+01  3.331328735E+02
2.529136786E+01  3.334064026E+02
2.530610866E+01  3.331157837E+02
2.532084945E+01  3.338915405E+02
2.533559024E+01  3.352583313E+02
2.535033103E+01  3.365488892E+02
2.536507182E+01  3.375776978E+02
2.537981262E+01  3.383745117E+02
2.539455341E+01  3.390971985E+02
2.540929420E+01  3.396691895E+02
2.542403499E+01  3.412962036E+02
2.543877578E+01  3.431207886E+02
2.545351658E+01  3.430659180E+02
2.546825737E+01  3.443688660E+02
2.548299816E+01  3.464233093E+02
2.549773895E+01  3.472232361E+02
2.551247975E+01  3.470858459E+02
2.552722054E+01  3.476245728E+02
2.554196133E+01  3.482662964E+02
2.555670212E+01  3.495367126E+02
2.557144291E+01  3.504590149E+02
2.558618371E+01  3.500819397E+02
2.560092450E+01  3.506080322E+02
2.561566529E+01  3.511129456E+02
2.563040608E+01  3.510270691E+02
2.564514687E+01  3.503692932E+02
2.565988767E+01  3.497839355E+02
2.567462846E+01  3.498058167E+02
2.568936925E+01  3.501148987E+02
2.570411004E+01  3.497296753E+02
2.571885084E+01  3.487311401E+02
2.573359163E+01  3.480866394E+02
2.574833242E+01  3.471452637E+02
2.576307321E+01  3.452338867E+02
2.577781400E+01  3.432309570E+02
2.579255480E+01  3.421121521E+02
2.580729559E+01  3.413526306E+02
2.582203638E+01  3.398420410E+02
2.583677717E+01  3.386369324E+02
2.585151796E+01  3.384619446E+02
2.586625876E+01  3.371655273E+02
2.588099955E+01  3.370196228E+02
2.589574034E+01  3.367763062E+02
2.591048113E+01  3.351152649E+02
2.592522192E+01  3.348062439E+02
2.593996272E+01  3.343129578E+02
2.595470351E+01  3.333185425E+02
2.596944430E+01  3.323344421E+02
2.598418509E+01  3.325896301E+02
2.599892589E+01  3.332093201E+02
2.601366668E+01  3.327596130E+02
2.602840747E+01  3.309674988E+02
2.604314826E+01  3.307625732E+02
2.605788905E+01  3.303820496E+02
2.607262985E+01  3.303455200E+02
2.608737064E+01  3.290000916E+02
2.610211143E+01  3.287693481E+02
2.611685222E+01  3.293076782E+02
2.613159301E+01  3.295649414E+02
2.614633381E+01  3.289948425E+02
2.616107460E+01  3.285022583E+02
2.617581539E+01  3.284228210E+02
2.619055618E+01  3.288611755E+02
2.620529697E+01  3.286432495E+02
2.622003777E+01  3.294044800E+02
2.623477856E+01  3.290672302E+02
2.624951935E+01  3.287957764E+02
2.626426014E+01  3.283377991E+02
2.627900094E+01  3.282574158E+02
2.629374173E+01  3.279841003E+02
2.630848252E+01  3.285323486E+02
2.632322331E+01  3.301380310E+02
2.633796410E+01  3.313002930E+02
2.635270490E+01  3.319197693E+02
2.636744569E+01  3.320545349E+02
2.638218648E+01  3.330184631E+02
2.639692727E+01  3.339316101E+02
2.641166806E+01  3.354316406E+02
2.642640886E+01  3.385137024E+02
2.644114965E+01  3.425633850E+02
2.645589044E+01  3.464003601E+02
2.647063123E+01  3.482828979E+02
2.648537202E+01  3.480734253E+02
2.650011282E+01  3.469334412E+02
2.651485361E+01  3.456335449E+02
2.652959440E+01  3.438562927E+02
2.654433519E+01  3.399723511E+02
2.655907599E+01  3.364188538E+02
2.657381678E+01  3.345263062E+02
2.658855757E+01  3.327388306E+02
2.660329836E+01  3.310497437E+02
2.661803915E+01  3.297435303E+02
2.663277995E+01  3.288280640E+02
2.664752074E+01  3.278566589E+02
2.666226153E+01  3.281242981E+02
2.667700232E+01  3.283437805E+02
2.669174311E+01  3.284414978E+02
2.670648391E+01  3.274378052E+02
2.672122470E+01  3.271264038E+02
2.673596549E+01  3.277627258E+02
2.675070628E+01  3.285655518E+02
2.676544707E+01  3.285833130E+02
2.678018787E+01  3.280506287E+02
2.679492866E+01  3.285204468E+02
2.680966945E+01  3.282120361E+02
2.682441024E+01  3.284966431E+02
2.683915104E+01  3.284185181E+02
2.685389183E+01  3.281460876E+02
2.686863262E+01  3.271286011E+02
2.688337341E+01  3.268139954E+02
2.689811420E+01  3.265729370E+02
2.691285500E+01  3.267257080E+02
2.692759579E+01  3.269374695E+02
2.694233658E+01  3.265828552E+02
2.695707737E+01  3.249763794E+02
2.697181816E+01  3.253487549E+02
2.698655896E+01  3.258044739E+02
2.700129975E+01  3.247320251E+02
2.701604054E+01  3.239589233E+02
2.703078133E+01  3.233510437E+02
2.704552213E+01  3.239396362E+02
2.706026292E+01  3.239632263E+02
2.707500371E+01  3.243110962E+02
2.708974450E+01  3.242981873E+02
2.710448529E+01  3.242916870E+02
2.711922609E+01  3.246326904E+02
2.713396688E+01  3.241254883E+02
2.714870767E+01  3.242606201E+02
2.716344846E+01  3.235839844E+02
2.717818925E+01  3.227254333E+02
2.719293005E+01  3.235175476E+02
2.720767084E+01  3.240809937E+02
2.722241163E+01  3.230417786E+02
2.723715242E+01  3.221147156E+02
2.725189321E+01  3.226300049E+02
2.726663401E+01  3.237017822E+02
2.728137480E+01  3.241154480E+02
2.729611559E+01  3.256755676E+02
2.731085638E+01  3.258417969E+02
2.732559718E+01  3.251280518E+02
2.734033797E+01  3.253530273E+02
2.735507876E+01  3.262353516E+02
2.736981955E+01  3.258875732E+02
2.738456034E+01  3.265891724E+02
2.739930114E+01  3.279018860E+02
2.741404193E+01  3.281105957E+02
2.742878272E+01  3.292373352E+02
2.744352351E+01  3.300382080E+02
2.745826430E+01  3.310800781E+02
2.747300510E+01  3.335281982E+02
2.748774589E+01  3.339022522E+02
2.750248668E+01  3.336235352E+02
2.751722747E+01  3.306923218E+02
2.753196826E+01  3.269062500E+02
2.754670906E+01  3.251457825E+02
2.756144985E+01  3.262301636E+02
2.757619064E+01  3.270102234E+02
2.759093143E+01  3.285925293E+02
2.760567223E+01  3.319083557E+02
2.762041302E+01  3.374575195E+02
2.763515381E+01  3.409323730E+02
2.764989460E+01  3.455733948E+02
2.766463539E+01  3.542286072E+02
2.767937619E+01  3.620927429E+02
2.769411698E+01  3.646725464E+02
2.770885777E+01  3.644817505E+02
2.772359856E+01  3.609881897E+02
2.773833935E+01  3.568204651E+02
2.775308015E+01  3.503255615E+02
2.776782094E+01  3.438776855E+02
2.778256173E+01  3.372886963E+02
2.779730252E+01  3.319913635E+02
2.781204331E+01  3.283178101E+02
2.782678411E+01  3.263211975E+02
2.784152490E+01  3.285763245E+02
2.785626569E+01  3.319335022E+02
2.787100648E+01  3.325180359E+02
2.788574728E+01  3.305968323E+02
2.790048807E+01  3.291320801E+02
2.791522886E+01  3.287459106E+02
2.792996965E+01  3.284643555E+02
2.794471044E+01  3.284759827E+02
2.795945124E+01  3.265067749E+02
2.797419203E+01  3.247942505E+02
2.798893282E+01  3.240544128E+02
2.800367361E+01  3.234924622E+02
2.801841440E+01  3.237050171E+02
2.803315520E+01  3.245447693E+02
2.804789599E+01  3.238971558E+02
2.806263678E+01  3.226605530E+02
2.807737757E+01  3.219998169E+02
2.809211837E+01  3.211564941E+02
2.810685916E+01  3.214563599E+02
2.812159995E+01  3.215539856E+02
2.813634074E+01  3.208652344E+02
2.815108153E+01  3.196868896E+02
2.816582233E+01  3.203775635E+02
2.818056312E+01  3.211379089E+02
2.819530391E+01  3.203709106E+02
2.821004470E+01  3.193573303E+02
2.822478549E+01  3.188971863E+02
2.823952629E+01  3.185495300E+02
2.825426708E+01  3.199176025E+02
2.826900787E+01  3.203418274E+02
2.828374866E+01  3.194088745E+02
2.829848945E+01  3.200675964E+02
2.831323025E+01  3.201999512E+02
2.832797104E+01  3.183941345E+02
2.834271183E+01  3.178202820E+02
2.835745262E+01  3.194513855E+02
2.837219342E+01  3.205887756E+02
2.838693421E+01  3.194071960E+02
2.840167500E+01  3.193847046E+02
2.841641579E+01  3.199769592E+02
2.843115658E+01  3.202854614E+02
2.844589738E+01  3.206609802E+02
2.846063817E+01  3.194971619E+02
2.847537896E+01  3.182024231E+02
2.849011975E+01  3.181145935E+02
2.850486054E+01  3.191700134E+02
2.851960134E+01  3.188184509E+02
2.853434213E+01  3.189740295E+02
2.854908292E+01  3.190568542E+02
2.856382371E+01  3.182505188E+02
2.857856450E+01  3.182310791E+02
2.859330530E+01  3.188160400E+02
2.860804609E+01  3.172440796E+02
2.862278688E+01  3.170483398E+02
2.863752767E+01  3.169562683E+02
2.865226847E+01  3.158344116E+02
2.866700926E+01  3.154870911E+02
2.868175005E+01  3.163861694E+02
2.869649084E+01  3.157362976E+02
2.871123163E+01  3.154081421E+02
2.872597243E+01  3.146684265E+02
2.874071322E+01  3.145346375E+02
2.875545401E+01  3.151996155E+02
2.877019480E+01  3.150116577E+02
2.878493559E+01  3.142272949E+02
2.879967639E+01  3.137294617E+02
2.881441718E+01  3.133182678E+02
2.882915797E+01  3.126254272E+02
2.884389876E+01  3.134369202E+02
2.885863955E+01  3.143501892E+02
2.887338035E+01  3.144257202E+02
2.888812114E+01  3.142125244E+02
2.890286193E+01  3.141023254E+02
2.891760272E+01  3.140166931E+02
2.893234352E+01  3.132461548E+02
2.894708431E+01  3.131733093E+02
2.896182510E+01  3.134674988E+02
2.897656589E+01  3.126682129E+02
2.899130668E+01  3.123840027E+02
2.900604748E+01  3.123513489E+02
2.902078827E+01  3.115182190E+02
2.903552906E+01  3.117735596E+02
2.905026985E+01  3.122145386E+02
2.906501064E+01  3.125797119E+02
2.907975144E+01  3.125460205E+02
2.909449223E+01  3.122904968E+02
2.910923302E+01  3.118513489E+02
2.912397381E+01  3.113478088E+02
2.913871461E+01  3.111933594E+02
2.915345540E+01  3.115318909E+02
2.916819619E+01  3.113331909E+02
2.918293698E+01  3.109492493E+02
2.919767777E+01  3.122331543E+02
2.921241857E+01  3.133220520E+02
2.922715936E+01  3.129666443E+02
2.924190015E+01  3.117406311E+02
2.925664094E+01  3.114406128E+02
2.927138173E+01  3.116063843E+02
2.928612253E+01  3.114429626E+02
2.930086332E+01  3.121941528E+02
2.931560411E+01  3.120685425E+02
2.933034490E+01  3.119938049E+02
2.934508569E+01  3.111141357E+02
2.935982649E+01  3.111103516E+02
2.937456728E+01  3.122847290E+02
2.938930807E+01  3.125005798E+02
2.940404886E+01  3.110125732E+02
2.941878966E+01  3.101269836E+02
2.943353045E+01  3.115428467E+02
2.944827124E+01  3.133737793E+02
2.946301203E+01  3.142454224E+02
2.947775282E+01  3.127036133E+02
2.949249362E+01  3.122942810E+02
2.950723441E+01  3.135162659E+02
2.952197520E+01  3.145622559E+02
2.953671599E+01  3.147891235E+02
2.955145678E+01  3.154253540E+02
2.956619758E+01  3.149056091E+02
2.958093837E+01  3.140757141E+02
2.959567916E+01  3.145642700E+02
2.961041995E+01  3.157846985E+02
2.962516074E+01  3.157471313E+02
2.963990154E+01  3.141001892E+02
2.965464233E+01  3.131321716E+02
2.966938312E+01  3.132959900E+02
2.968412391E+01  3.139865417E+02
2.969886471E+01  3.128592224E+02
2.971360550E+01  3.119660034E+02
2.972834629E+01  3.118088074E+02
2.974308708E+01  3.116345215E+02
2.975782787E+01  3.098442993E+02
2.977256867E+01  3.079994812E+02
2.978730946E+01  3.079514771E+02
2.980205025E+01  3.074320679E+02
2.981679104E+01  3.059621582E+02
2.983153183E+01  3.040437012E+02
2.984627263E+01  3.033728027E+02
2.986101342E+01  3.025484314E+02
2.987575421E+01  3.022326965E+02
2.989049500E+01  3.014050598E+02
2.990523579E+01  3.007367249E+02
2.991997659E+01  2.993466492E+02
2.993471738E+01  2.977452393E+02
2.994945817E+01  2.960667725E+02
2.996419896E+01  2.943625488E+02
2.997893976E+01  2.935923767E+02
2.999368055E+01  2.924971008E+02
3.000842134E+01  2.899033813E+02
3.002316213E+01  2.874462585E+02
3.003790292E+01  2.858580627E+02
3.005264372E+01  2.842551575E+02
3.006738451E+01  2.825197449E+02
3.008212530E+01  2.799816284E+02
3.009686609E+01  2.774570923E+02
3.011160688E+01  2.753498535E+02
3.012634768E+01  2.743988647E+02
3.014108847E+01  2.733530884E+02
3.015582926E+01  2.703530273E+02
3.017057005E+01  2.667963867E+02
3.018531085E+01  2.644512634E+02
3.020005164E+01  2.618905334E+02
3.021479243E+01  2.596319275E+02
3.022953322E+01  2.561984253E+02
3.024427401E+01  2.529840240E+02
3.025901481E+01  2.493429565E+02
3.027375560E+01  2.466084747E+02
3.028849639E+01  2.427589111E+02
3.030323718E+01  2.407551880E+02
3.031797797E+01  2.395837708E+02
3.033271877E+01  2.376666870E+02
3.034745956E+01  2.354084473E+02
3.036220035E+01  2.335863647E+02
3.037694114E+01  2.326109772E+02
3.039168193E+01  2.319491730E+02
3.040642273E+01  2.307559967E+02
3.042116352E+01  2.286386566E+02
3.043590431E+01  2.264058075E+02
3.045064510E+01  2.251443634E+02
3.046538590E+01  2.250874481E+02
3.048012669E+01  2.228207550E+02
3.049486748E+01  2.214516144E+02
3.050960827E+01  2.207541809E+02
3.052434906E+01  2.197459717E+02
3.053908986E+01  2.164408264E+02
3.055383065E+01  2.147491608E+02
3.056857144E+01  2.137142944E+02
3.058331223E+01  2.123249359E+02
3.059805302E+01  2.105952148E+02
3.061279382E+01  2.088608093E+02
3.062753461E+01  2.066541443E+02
3.064227540E+01  2.045342865E+02
3.065701619E+01  2.032611237E+02
3.067175698E+01  2.014209595E+02
3.068649778E+01  1.996463776E+02
3.070123857E+01  1.974080505E+02
3.071597936E+01  1.960439606E+02
3.073072015E+01  1.944678650E+02
3.074546095E+01  1.932837372E+02
3.076020174E+01  1.912715759E+02
3.077494253E+01  1.898341064E+02
3.078968332E+01  1.865560913E+02
3.080442411E+01  1.842796478E+02
3.081916491E+01  1.832867737E+02
3.083390570E+01  1.822338867E+02
3.084864649E+01  1.809702454E+02
3.086338728E+01  1.794166412E+02
3.087812807E+01  1.770549622E+02
3.089286887E+01  1.752741241E+02
3.090760966E+01  1.733671875E+02
3.092235045E+01  1.715158539E+02
3.093709124E+01  1.696282196E+02
3.095183203E+01  1.676139526E+02
3.096657283E+01  1.666368103E+02
3.098131362E+01  1.647388458E+02
3.099605441E+01  1.626866760E+02
3.101079520E+01  1.609920959E+02
3.102553600E+01  1.598718719E+02
3.104027679E+01  1.583837891E+02
3.105501758E+01  1.564955750E+02
3.106975837E+01  1.549929047E+02
3.108449916E+01  1.530503082E+02
3.109923996E+01  1.512590790E+02
3.111398075E+01  1.495959167E+02
3.112872154E+01  1.470011749E+02
3.114346233E+01  1.452822723E+02
3.115820312E+01  1.439446716E+02
3.117294392E+01  1.420313416E+02
3.118768471E+01  1.400312805E+02
3.120242550E+01  1.379091797E+02
3.121716629E+01  1.368653564E+02
3.123190709E+01  1.362377777E+02
3.124664788E+01  1.343457184E+02
3.126138867E+01  1.319687653E+02
3.127612946E+01  1.307228241E+02
3.129087025E+01  1.293297119E+02
3.130561105E+01  1.274731598E+02
3.132035184E+01  1.260687866E+02
3.133509263E+01  1.240733795E+02
3.134983342E+01  1.226232834E+02
3.136457421E+01  1.215792236E+02
3.137931501E+01  1.201395111E+02
3.139405580E+01  1.182578506E+02
3.140879659E+01  1.167742920E+02
3.142353738E+01  1.157030563E+02
3.143827817E+01  1.135341873E+02
3.145301897E+01  1.119190369E+02
3.146775976E+01  1.105285492E+02
3.148250055E+01  1.084054642E+02
3.149724134E+01  1.065357971E+02
3.151198214E+01  1.049973373E+02
3.152672293E+01  1.032808151E+02
3.154146372E+01  1.010432434E+02
3.155620451E+01  9.921707916E+01
3.157094530E+01  9.921187592E+01
3.158568610E+01  9.870596313E+01
3.160042689E+01  9.772270203E+01
3.161516768E+01  9.590515137E+01
3.162990847E+01  9.363925171E+01
3.164464926E+01  9.305666351E+01
3.165939006E+01  9.165013123E+01
3.167413085E+01  8.915019989E+01
3.168887164E+01  8.732551575E+01
3.170361243E+01  8.591177368E+01
3.171835322E+01  8.482759857E+01
3.173309402E+01  8.299907684E+01
3.174783481E+01  8.153313446E+01
3.176257560E+01  7.958833313E+01
3.177731639E+01  7.902561188E+01
3.179205719E+01  7.875832367E+01
3.180679798E+01  7.621292114E+01
3.182153877E+01  7.443498230E+01
3.183627956E+01  7.301933289E+01
3.185102035E+01  7.202750397E+01
3.186576115E+01  7.060322571E+01
3.188050194E+01  6.892665100E+01
3.189524273E+01  6.798410034E+01
3.190998352E+01  6.628894043E+01
3.192472431E+01  6.636265564E+01
3.193946511E+01  6.278583527E+01
3.195420590E+01  6.216991043E+01
3.196894669E+01  5.979383469E+01
3.198368748E+01  5.515195084E+01
3.199842827E+01  5.631576920E+01
3.201316907E+01  5.997208023E+01
3.202790986E+01  6.004847336E+01
3.204265065E+01  6.004847336E+01
3.205739144E+01  3.921422958E+01
3.207213224E+01  4.346696091E+01
3.208687303E+01  4.526249695E+01
