# == pyFAI calibration ==
# Distance Sample to Detector: 0.11507480176033233 m
# PONI: 5.477e-03, 4.716e-03 m
# Rotations: 0.004686 0.005536 0.000000 rad
# 
# == Fit2d calibration ==
# Distance Sample-beamCenter: 115.078 mm
# Center: x=55.690, y=81.516 pix
# Tilt: 0.416 deg  TiltPlanRot: 130.247 deg
# 
# Detector Detector	 Spline= None	 PixelSize= 7.500e-05, 7.500e-05 m
#    Detector has a mask: False 
#    Detector has a dark current: False 
#    detector has a flat field: False 
# 
# Wavelength: 4.833e-11 m
# Mask applied: None
# Dark current applied: None
# Flat field applied: None
# Polarization factor: None
# Normalization factor: None
#
# 2th_deg	 I
1.131209591E+00  6.851071167E+01
1.145950384E+00  7.224161530E+01
1.160691176E+00  8.747515106E+01
1.175431968E+00  9.780653381E+01
1.190172760E+00  1.152409286E+02
1.204913552E+00  1.241314926E+02
1.219654344E+00  1.330113831E+02
1.234395136E+00  1.358603973E+02
1.249135928E+00  1.402390442E+02
1.263876720E+00  1.478139801E+02
1.278617513E+00  1.537436981E+02
1.293358305E+00  1.595936737E+02
1.308099097E+00  1.616248016E+02
1.322839889E+00  1.683734741E+02
1.337580681E+00  1.739351959E+02
1.352321473E+00  1.783807831E+02
1.367062265E+00  1.814098053E+02
1.381803057E+00  1.834315948E+02
1.396543850E+00  1.868957520E+02
1.411284642E+00  1.897856598E+02
1.426025434E+00  1.908543701E+02
1.440766226E+00  1.951340942E+02
1.455507018E+00  1.971323853E+02
1.470247810E+00  1.995141449E+02
1.484988602E+00  2.018434906E+02
1.499729394E+00  2.045727539E+02
1.514470186E+00  2.076629028E+02
1.529210979E+00  2.096024933E+02
1.543951771E+00  2.118090363E+02
1.558692563E+00  2.142573547E+02
1.573433355E+00  2.157783508E+02
1.588174147E+00  2.164858398E+02
1.602914939E+00  2.153744202E+02
1.617655731E+00  2.166209717E+02
1.632396523E+00  2.206550751E+02
1.647137315E+00  2.253386078E+02
1.661878108E+00  2.278937683E+02
1.676618900E+00  2.261092987E+02
1.691359692E+00  2.255246124E+02
1.706100484E+00  2.263935242E+02
1.720841276E+00  2.289483643E+02
1.735582068E+00  2.312851562E+02
1.750322860E+00  2.326058655E+02
1.765063652E+00  2.313002472E+02
1.779804444E+00  2.316727142E+02
1.794545237E+00  2.325810089E+02
1.809286029E+00  2.347004852E+02
1.824026821E+00  2.369544220E+02
1.838767613E+00  2.369751740E+02
1.853508405E+00  2.382213440E+02
1.868249197E+00  2.373748322E+02
1.882989989E+00  2.384515228E+02
1.897730781E+00  2.381706543E+02
1.912471573E+00  2.398268433E+02
1.927212366E+00  2.414353790E+02
1.941953158E+00  2.431543427E+02
1.956693950E+00  2.462335510E+02
1.971434742E+00  2.482305145E+02
1.986175534E+00  2.490216370E+02
2.000916326E+00  2.503870850E+02
2.015657118E+00  2.521136780E+02
2.030397910E+00  2.542047424E+02
2.045138702E+00  2.553304901E+02
2.059879495E+00  2.562651367E+02
2.074620287E+00  2.573676147E+02
2.089361079E+00  2.589634399E+02
2.104101871E+00  2.598189697E+02
2.118842663E+00  2.614184570E+02
2.133583455E+00  2.623785706E+02
2.148324247E+00  2.650039978E+02
2.163065039E+00  2.660192871E+02
2.177805831E+00  2.668782959E+02
2.192546624E+00  2.674340210E+02
2.207287416E+00  2.677161255E+02
2.222028208E+00  2.694955139E+02
2.236769000E+00  2.696122437E+02
2.251509792E+00  2.705326538E+02
2.266250584E+00  2.710492554E+02
2.280991376E+00  2.711457520E+02
2.295732168E+00  2.717295227E+02
2.310472960E+00  2.723846741E+02
2.325213753E+00  2.731308899E+02
2.339954545E+00  2.744407959E+02
2.354695337E+00  2.742396545E+02
2.369436129E+00  2.746320496E+02
2.384176921E+00  2.749261780E+02
2.398917713E+00  2.756213074E+02
2.413658505E+00  2.765717163E+02
2.428399297E+00  2.778310547E+02
2.443140089E+00  2.781426697E+02
2.457880882E+00  2.772125854E+02
2.472621674E+00  2.763073730E+02
2.487362466E+00  2.746282959E+02
2.502103258E+00  2.748010254E+02
2.516844050E+00  2.747891846E+02
2.531584842E+00  2.754769592E+02
2.546325634E+00  2.761374207E+02
2.561066426E+00  2.757339172E+02
2.575807219E+00  2.762583313E+02
2.590548011E+00  2.764239197E+02
2.605288803E+00  2.751306763E+02
2.620029595E+00  2.750216064E+02
2.634770387E+00  2.752076721E+02
2.649511179E+00  2.756220093E+02
2.664251971E+00  2.758757324E+02
2.678992763E+00  2.755976562E+02
2.693733555E+00  2.754489136E+02
2.708474348E+00  2.750706482E+02
2.723215140E+00  2.738229980E+02
2.737955932E+00  2.741055908E+02
2.752696724E+00  2.743603516E+02
2.767437516E+00  2.745087891E+02
2.782178308E+00  2.739251404E+02
2.796919100E+00  2.732278137E+02
2.811659892E+00  2.725197449E+02
2.826400684E+00  2.718128967E+02
2.841141477E+00  2.724259033E+02
2.855882269E+00  2.729069214E+02
2.870623061E+00  2.723744202E+02
2.885363853E+00  2.724198608E+02
2.900104645E+00  2.716060486E+02
2.914845437E+00  2.719531250E+02
2.929586229E+00  2.713422546E+02
2.944327021E+00  2.705376892E+02
2.959067813E+00  2.696105347E+02
2.973808606E+00  2.687100525E+02
2.988549398E+00  2.687561035E+02
3.003290190E+00  2.685809631E+02
3.018030982E+00  2.688753662E+02
3.032771774E+00  2.690179749E+02
3.047512566E+00  2.698872070E+02
3.062253358E+00  2.694658203E+02
3.076994150E+00  2.689714966E+02
3.091734942E+00  2.684226685E+02
3.106475735E+00  2.686703491E+02
3.121216527E+00  2.678537598E+02
3.135957319E+00  2.674667664E+02
3.150698111E+00  2.674094849E+02
3.165438903E+00  2.670947571E+02
3.180179695E+00  2.671888733E+02
3.194920487E+00  2.681940308E+02
3.209661279E+00  2.686839600E+02
3.224402071E+00  2.684909668E+02
3.239142864E+00  2.679529724E+02
3.253883656E+00  2.677308044E+02
3.268624448E+00  2.683752441E+02
3.283365240E+00  2.683942566E+02
3.298106032E+00  2.678194580E+02
3.312846824E+00  2.672597046E+02
3.327587616E+00  2.663417664E+02
3.342328408E+00  2.662042236E+02
3.357069200E+00  2.659493408E+02
3.371809993E+00  2.666722107E+02
3.386550785E+00  2.670476074E+02
3.401291577E+00  2.668847046E+02
3.416032369E+00  2.657916870E+02
3.430773161E+00  2.641881714E+02
3.445513953E+00  2.633477173E+02
3.460254745E+00  2.640134888E+02
3.474995537E+00  2.651774902E+02
3.489736329E+00  2.651341248E+02
3.504477122E+00  2.643160095E+02
3.519217914E+00  2.640011902E+02
3.533958706E+00  2.640787354E+02
3.548699498E+00  2.643059082E+02
3.563440290E+00  2.632770691E+02
3.578181082E+00  2.621263733E+02
3.592921874E+00  2.612326965E+02
3.607662666E+00  2.622614746E+02
3.622403458E+00  2.628274231E+02
3.637144251E+00  2.626670227E+02
3.651885043E+00  2.611360779E+02
3.666625835E+00  2.598971558E+02
3.681366627E+00  2.589617004E+02
3.696107419E+00  2.581058350E+02
3.710848211E+00  2.575636292E+02
3.725589003E+00  2.568962097E+02
3.740329795E+00  2.577450867E+02
3.755070587E+00  2.580995483E+02
3.769811380E+00  2.581682434E+02
3.784552172E+00  2.587985840E+02
3.799292964E+00  2.593392334E+02
3.814033756E+00  2.600947266E+02
3.828774548E+00  2.608002625E+02
3.843515340E+00  2.618714905E+02
3.858256132E+00  2.656380005E+02
3.872996924E+00  2.701074524E+02
3.887737717E+00  2.725758362E+02
3.902478509E+00  2.744737244E+02
3.917219301E+00  2.741872864E+02
3.931960093E+00  2.735990601E+02
3.946700885E+00  2.719092102E+02
3.961441677E+00  2.706810913E+02
3.976182469E+00  2.693579712E+02
3.990923261E+00  2.676712036E+02
4.005664053E+00  2.660552368E+02
4.020404846E+00  2.639768677E+02
4.035145638E+00  2.626571960E+02
4.049886430E+00  2.612417908E+02
4.064627222E+00  2.605015869E+02
4.079368014E+00  2.598713074E+02
4.094108806E+00  2.589720764E+02
4.108849598E+00  2.581190186E+02
4.123590390E+00  2.559255219E+02
4.138331182E+00  2.553222656E+02
4.153071975E+00  2.544361420E+02
4.167812767E+00  2.536235199E+02
4.182553559E+00  2.531511993E+02
4.197294351E+00  2.527429810E+02
4.212035143E+00  2.518166046E+02
4.226775935E+00  2.507776337E+02
4.241516727E+00  2.501325531E+02
4.256257519E+00  2.495441437E+02
4.270998311E+00  2.496830597E+02
4.285739104E+00  2.496509705E+02
4.300479896E+00  2.488601837E+02
4.315220688E+00  2.471755219E+02
4.329961480E+00  2.455459595E+02
4.344702272E+00  2.464322815E+02
4.359443064E+00  2.468941345E+02
4.374183856E+00  2.469269257E+02
4.388924648E+00  2.464290771E+02
4.403665440E+00  2.460841064E+02
4.418406233E+00  2.458805542E+02
4.433147025E+00  2.455986786E+02
4.447887817E+00  2.457424469E+02
4.462628609E+00  2.453551636E+02
4.477369401E+00  2.446636810E+02
4.492110193E+00  2.436745758E+02
4.506850985E+00  2.426016693E+02
4.521591777E+00  2.419944153E+02
4.536332569E+00  2.412501831E+02
4.551073362E+00  2.410552673E+02
4.565814154E+00  2.405530243E+02
4.580554946E+00  2.403054199E+02
4.595295738E+00  2.400954590E+02
4.610036530E+00  2.405683594E+02
4.624777322E+00  2.407062225E+02
4.639518114E+00  2.402308197E+02
4.654258906E+00  2.394051666E+02
4.668999698E+00  2.381157227E+02
4.683740491E+00  2.369676666E+02
4.698481283E+00  2.362890320E+02
4.713222075E+00  2.366037750E+02
4.727962867E+00  2.367057648E+02
4.742703659E+00  2.368100281E+02
4.757444451E+00  2.365263367E+02
4.772185243E+00  2.367087555E+02
4.786926035E+00  2.374458923E+02
4.801666827E+00  2.374640503E+02
4.816407620E+00  2.370946350E+02
4.831148412E+00  2.364631500E+02
4.845889204E+00  2.359107513E+02
4.860629996E+00  2.350502930E+02
4.875370788E+00  2.351855164E+02
4.890111580E+00  2.352997131E+02
4.904852372E+00  2.362780304E+02
4.919593164E+00  2.363796234E+02
4.934333956E+00  2.359529724E+02
4.949074749E+00  2.346301575E+02
4.963815541E+00  2.339108734E+02
4.978556333E+00  2.343868561E+02
4.993297125E+00  2.346483307E+02
5.008037917E+00  2.340249329E+02
5.022778709E+00  2.331933441E+02
5.037519501E+00  2.334204254E+02
5.052260293E+00  2.328473053E+02
5.067001086E+00  2.319865723E+02
5.081741878E+00  2.318445435E+02
5.096482670E+00  2.324221954E+02
5.111223462E+00  2.323584900E+02
5.125964254E+00  2.321198578E+02
5.140705046E+00  2.315557404E+02
5.155445838E+00  2.313290100E+02
5.170186630E+00  2.305504303E+02
5.184927422E+00  2.299664917E+02
5.199668215E+00  2.300715790E+02
5.214409007E+00  2.301496582E+02
5.229149799E+00  2.298269653E+02
5.243890591E+00  2.294320068E+02
5.258631383E+00  2.297209015E+02
5.273372175E+00  2.292647705E+02
5.288112967E+00  2.286064606E+02
5.302853759E+00  2.287081299E+02
5.317594551E+00  2.294736328E+02
5.332335344E+00  2.297123718E+02
5.347076136E+00  2.290240173E+02
5.361816928E+00  2.280029144E+02
5.376557720E+00  2.281921539E+02
5.391298512E+00  2.277107391E+02
5.406039304E+00  2.271900482E+02
5.420780096E+00  2.264004669E+02
5.435520888E+00  2.262601318E+02
5.450261680E+00  2.269458160E+02
5.465002473E+00  2.274161377E+02
5.479743265E+00  2.272425537E+02
5.494484057E+00  2.269806366E+02
5.509224849E+00  2.270261383E+02
5.523965641E+00  2.264645691E+02
5.538706433E+00  2.260157623E+02
5.553447225E+00  2.255237427E+02
5.568188017E+00  2.256281891E+02
5.582928809E+00  2.253245392E+02
5.597669602E+00  2.258249054E+02
5.612410394E+00  2.266643219E+02
5.627151186E+00  2.276525726E+02
5.641891978E+00  2.279212036E+02
5.656632770E+00  2.282823639E+02
5.671373562E+00  2.283466644E+02
5.686114354E+00  2.278509979E+02
5.700855146E+00  2.268077087E+02
5.715595938E+00  2.265522156E+02
5.730336731E+00  2.264443207E+02
5.745077523E+00  2.267109070E+02
5.759818315E+00  2.262942352E+02
5.774559107E+00  2.263137512E+02
5.789299899E+00  2.267577057E+02
5.804040691E+00  2.273370056E+02
5.818781483E+00  2.276128235E+02
5.833522275E+00  2.274943237E+02
5.848263067E+00  2.280565186E+02
5.863003860E+00  2.286866608E+02
5.877744652E+00  2.285099182E+02
5.892485444E+00  2.286968231E+02
5.907226236E+00  2.285210114E+02
5.921967028E+00  2.285863953E+02
5.936707820E+00  2.278358002E+02
5.951448612E+00  2.273920441E+02
5.966189404E+00  2.272732391E+02
5.980930196E+00  2.267211761E+02
5.995670989E+00  2.262002106E+02
6.010411781E+00  2.255998840E+02
6.025152573E+00  2.259266205E+02
6.039893365E+00  2.261317291E+02
6.054634157E+00  2.264943085E+02
6.069374949E+00  2.266613007E+02
6.084115741E+00  2.265351105E+02
6.098856533E+00  2.260966339E+02
6.113597325E+00  2.252378845E+02
6.128338118E+00  2.249961548E+02
6.143078910E+00  2.251230164E+02
6.157819702E+00  2.249424133E+02
6.172560494E+00  2.245396271E+02
6.187301286E+00  2.245771790E+02
6.202042078E+00  2.243616486E+02
6.216782870E+00  2.249203491E+02
6.231523662E+00  2.251394043E+02
6.246264454E+00  2.252887726E+02
6.261005247E+00  2.255512848E+02
6.275746039E+00  2.249740448E+02
6.290486831E+00  2.253974609E+02
6.305227623E+00  2.250649719E+02
6.319968415E+00  2.259434204E+02
6.334709207E+00  2.257579041E+02
6.349449999E+00  2.253651428E+02
6.364190791E+00  2.248238525E+02
6.378931584E+00  2.256391602E+02
6.393672376E+00  2.267543793E+02
6.408413168E+00  2.277453461E+02
6.423153960E+00  2.280956573E+02
6.437894752E+00  2.277774048E+02
6.452635544E+00  2.276434631E+02
6.467376336E+00  2.272294769E+02
6.482117128E+00  2.270410309E+02
6.496857920E+00  2.266439972E+02
6.511598713E+00  2.264262543E+02
6.526339505E+00  2.264260101E+02
6.541080297E+00  2.269067383E+02
6.555821089E+00  2.271929626E+02
6.570561881E+00  2.275740051E+02
6.585302673E+00  2.270871735E+02
6.600043465E+00  2.271660004E+02
6.614784257E+00  2.276062775E+02
6.629525049E+00  2.283758087E+02
6.644265842E+00  2.289992218E+02
6.659006634E+00  2.285131226E+02
6.673747426E+00  2.276688690E+02
6.688488218E+00  2.268605042E+02
6.703229010E+00  2.275570068E+02
6.717969802E+00  2.279786987E+02
6.732710594E+00  2.277342834E+02
6.747451386E+00  2.275583344E+02
6.762192178E+00  2.286391296E+02
6.776932971E+00  2.289919891E+02
6.791673763E+00  2.291637726E+02
6.806414555E+00  2.287734070E+02
6.821155347E+00  2.285330353E+02
6.835896139E+00  2.286214447E+02
6.850636931E+00  2.286951294E+02
6.865377723E+00  2.286071777E+02
6.880118515E+00  2.285260468E+02
6.894859307E+00  2.290302582E+02
6.909600100E+00  2.292425842E+02
6.924340892E+00  2.298220673E+02
6.939081684E+00  2.298767090E+02
6.953822476E+00  2.297648163E+02
6.968563268E+00  2.293522491E+02
6.983304060E+00  2.291180725E+02
6.998044852E+00  2.298128357E+02
7.012785644E+00  2.308619690E+02
7.027526436E+00  2.311511230E+02
7.042267229E+00  2.315084686E+02
7.057008021E+00  2.317543640E+02
7.071748813E+00  2.318402405E+02
7.086489605E+00  2.314722137E+02
7.101230397E+00  2.313856354E+02
7.115971189E+00  2.321533661E+02
7.130711981E+00  2.331832123E+02
7.145452773E+00  2.329688873E+02
7.160193565E+00  2.320973053E+02
7.174934358E+00  2.315814972E+02
7.189675150E+00  2.322204132E+02
7.204415942E+00  2.334228058E+02
7.219156734E+00  2.335469208E+02
7.233897526E+00  2.329885864E+02
7.248638318E+00  2.328104706E+02
7.263379110E+00  2.326515198E+02
7.278119902E+00  2.328775635E+02
7.292860694E+00  2.329950104E+02
7.307601487E+00  2.332984161E+02
7.322342279E+00  2.335551453E+02
7.337083071E+00  2.339226227E+02
7.351823863E+00  2.338143005E+02
7.366564655E+00  2.331968994E+02
7.381305447E+00  2.331009674E+02
7.396046239E+00  2.331520233E+02
7.410787031E+00  2.328974457E+02
7.425527823E+00  2.329047699E+02
7.440268616E+00  2.329570770E+02
7.455009408E+00  2.338568573E+02
7.469750200E+00  2.348472443E+02
7.484490992E+00  2.357829132E+02
7.499231784E+00  2.362584991E+02
7.513972576E+00  2.361911011E+02
7.528713368E+00  2.363864899E+02
7.543454160E+00  2.361750793E+02
7.558194953E+00  2.364030914E+02
7.572935745E+00  2.358495331E+02
7.587676537E+00  2.358990936E+02
7.602417329E+00  2.362644958E+02
7.617158121E+00  2.373206177E+02
7.631898913E+00  2.374684753E+02
7.646639705E+00  2.384199524E+02
7.661380497E+00  2.385704346E+02
7.676121289E+00  2.392086945E+02
7.690862082E+00  2.394529572E+02
7.705602874E+00  2.394379578E+02
7.720343666E+00  2.388232117E+02
7.735084458E+00  2.390033875E+02
7.749825250E+00  2.385344543E+02
7.764566042E+00  2.389127808E+02
7.779306834E+00  2.393973694E+02
7.794047626E+00  2.404862061E+02
7.808788418E+00  2.404675903E+02
7.823529211E+00  2.399495239E+02
7.838270003E+00  2.391117554E+02
7.853010795E+00  2.398015594E+02
7.867751587E+00  2.406671143E+02
7.882492379E+00  2.415286713E+02
7.897233171E+00  2.412049561E+02
7.911973963E+00  2.412400208E+02
7.926714755E+00  2.417255859E+02
7.941455547E+00  2.422069244E+02
7.956196340E+00  2.421024780E+02
7.970937132E+00  2.424419861E+02
7.985677924E+00  2.425202179E+02
8.000418716E+00  2.434388733E+02
8.015159508E+00  2.440292206E+02
8.029900300E+00  2.444639130E+02
8.044641092E+00  2.447691345E+02
8.059381884E+00  2.448170471E+02
8.074122676E+00  2.447388458E+02
8.088863469E+00  2.450614624E+02
8.103604261E+00  2.457869720E+02
8.118345053E+00  2.462483826E+02
8.133085845E+00  2.460336304E+02
8.147826637E+00  2.465495300E+02
8.162567429E+00  2.472445526E+02
8.177308221E+00  2.479286499E+02
8.192049013E+00  2.480424500E+02
8.206789805E+00  2.480876160E+02
8.221530598E+00  2.480417328E+02
8.236271390E+00  2.479667816E+02
8.251012182E+00  2.484878082E+02
8.265752974E+00  2.487631836E+02
8.280493766E+00  2.497018127E+02
8.295234558E+00  2.495763092E+02
8.309975350E+00  2.499934235E+02
8.324716142E+00  2.500151520E+02
8.339456934E+00  2.506142731E+02
8.354197727E+00  2.507313538E+02
8.368938519E+00  2.511607513E+02
8.383679311E+00  2.516737518E+02
8.398420103E+00  2.533002777E+02
8.413160895E+00  2.551581421E+02
8.427901687E+00  2.571108398E+02
8.442642479E+00  2.588313599E+02
8.457383271E+00  2.612596130E+02
8.472124063E+00  2.638026123E+02
8.486864856E+00  2.668320618E+02
8.501605648E+00  2.707116089E+02
8.516346440E+00  2.744192810E+02
8.531087232E+00  2.785020142E+02
8.545828024E+00  2.818083801E+02
8.560568816E+00  2.872293091E+02
8.575309608E+00  2.929566956E+02
8.590050400E+00  2.995564880E+02
8.604791192E+00  3.056652222E+02
8.619531985E+00  3.122794495E+02
8.634272777E+00  3.206054688E+02
8.649013569E+00  3.301421814E+02
8.663754361E+00  3.397549438E+02
8.678495153E+00  3.475203552E+02
8.693235945E+00  3.539926147E+02
8.707976737E+00  3.604837952E+02
8.722717529E+00  3.636116638E+02
8.737458321E+00  3.634570618E+02
8.752199114E+00  3.611622620E+02
8.766939906E+00  3.560050354E+02
8.781680698E+00  3.470510559E+02
8.796421490E+00  3.363734741E+02
8.811162282E+00  3.260150757E+02
8.825903074E+00  3.164617310E+02
8.840643866E+00  3.071086731E+02
8.855384658E+00  3.004869995E+02
8.870125451E+00  2.971161804E+02
8.884866243E+00  2.958689270E+02
8.899607035E+00  2.950276489E+02
8.914347827E+00  2.927827148E+02
8.929088619E+00  2.903397522E+02
8.943829411E+00  2.865917664E+02
8.958570203E+00  2.842420654E+02
8.973310995E+00  2.829604797E+02
8.988051787E+00  2.818389282E+02
9.002792580E+00  2.819376221E+02
9.017533372E+00  2.817091980E+02
9.032274164E+00  2.818338318E+02
9.047014956E+00  2.814460449E+02
9.061755748E+00  2.810541382E+02
9.076496540E+00  2.812979126E+02
9.091237332E+00  2.821573486E+02
9.105978124E+00  2.830554199E+02
9.120718916E+00  2.829179688E+02
9.135459709E+00  2.821826782E+02
9.150200501E+00  2.810570679E+02
9.164941293E+00  2.807052612E+02
9.179682085E+00  2.803139954E+02
9.194422877E+00  2.813443909E+02
9.209163669E+00  2.822966614E+02
9.223904461E+00  2.836020508E+02
9.238645253E+00  2.841856079E+02
9.253386045E+00  2.846224670E+02
9.268126838E+00  2.851355591E+02
9.282867630E+00  2.857838440E+02
9.297608422E+00  2.872362976E+02
9.312349214E+00  2.879630127E+02
9.327090006E+00  2.879903870E+02
9.341830798E+00  2.885037231E+02
9.356571590E+00  2.889921875E+02
9.371312382E+00  2.896710815E+02
9.386053174E+00  2.906426086E+02
9.400793967E+00  2.907219849E+02
9.415534759E+00  2.919074097E+02
9.430275551E+00  2.914747314E+02
9.445016343E+00  2.914730225E+02
9.459757135E+00  2.919558411E+02
9.474497927E+00  2.921813354E+02
9.489238719E+00  2.933050232E+02
9.503979511E+00  2.937602539E+02
9.518720303E+00  2.946294556E+02
9.533461096E+00  2.960068665E+02
9.548201888E+00  2.967218628E+02
9.562942680E+00  2.976387329E+02
9.577683472E+00  2.972592773E+02
9.592424264E+00  2.967331238E+02
9.607165056E+00  2.963168335E+02
9.621905848E+00  2.966612244E+02
9.636646640E+00  2.973974609E+02
9.651387432E+00  2.974225464E+02
9.666128225E+00  2.976201172E+02
9.680869017E+00  2.972955017E+02
9.695609809E+00  2.976189270E+02
9.710350601E+00  2.977145691E+02
9.725091393E+00  2.975020752E+02
9.739832185E+00  2.976231079E+02
9.754572977E+00  2.972671509E+02
9.769313769E+00  2.968892212E+02
9.784054561E+00  2.959811401E+02
9.798795354E+00  2.959243469E+02
9.813536146E+00  2.968081970E+02
9.828276938E+00  2.974376526E+02
9.843017730E+00  2.975349121E+02
9.857758522E+00  2.969658508E+02
9.872499314E+00  2.962068787E+02
9.887240106E+00  2.959432678E+02
9.901980898E+00  2.951835327E+02
9.916721690E+00  2.955648193E+02
9.931462483E+00  2.955752563E+02
9.946203275E+00  2.959083252E+02
9.960944067E+00  2.957864990E+02
9.975684859E+00  2.963737183E+02
9.990425651E+00  2.965695190E+02
1.000516644E+01  2.966476746E+02
1.001990724E+01  2.963430481E+02
1.003464803E+01  2.967727966E+02
1.004938882E+01  2.969829102E+02
1.006412961E+01  2.967592773E+02
1.007887040E+01  2.952098999E+02
1.009361120E+01  2.951158142E+02
1.010835199E+01  2.949345398E+02
1.012309278E+01  2.952376099E+02
1.013783357E+01  2.957542725E+02
1.015257436E+01  2.967837830E+02
1.016731516E+01  2.985106506E+02
1.018205595E+01  3.004319153E+02
1.019679674E+01  3.041170654E+02
1.021153753E+01  3.090897522E+02
1.022627832E+01  3.145083008E+02
1.024101912E+01  3.219745178E+02
1.025575991E+01  3.314131470E+02
1.027050070E+01  3.441903076E+02
1.028524149E+01  3.607871399E+02
1.029998229E+01  3.802097168E+02
1.031472308E+01  4.001535950E+02
1.032946387E+01  4.195636902E+02
1.034420466E+01  4.347598572E+02
1.035894545E+01  4.429419861E+02
1.037368625E+01  4.428418884E+02
1.038842704E+01  4.351842651E+02
1.040316783E+01  4.222356262E+02
1.041790862E+01  4.105496216E+02
1.043264941E+01  3.996945190E+02
1.044739021E+01  3.914511414E+02
1.046213100E+01  3.853164673E+02
1.047687179E+01  3.796340942E+02
1.049161258E+01  3.741163940E+02
1.050635337E+01  3.672769470E+02
1.052109417E+01  3.599666443E+02
1.053583496E+01  3.530277405E+02
1.055057575E+01  3.451175537E+02
1.056531654E+01  3.383592224E+02
1.058005734E+01  3.332303162E+02
1.059479813E+01  3.294727783E+02
1.060953892E+01  3.267061768E+02
1.062427971E+01  3.222284546E+02
1.063902050E+01  3.189043579E+02
1.065376130E+01  3.159229126E+02
1.066850209E+01  3.135260925E+02
1.068324288E+01  3.108412781E+02
1.069798367E+01  3.079335632E+02
1.071272446E+01  3.058032227E+02
1.072746526E+01  3.035293274E+02
1.074220605E+01  3.014194946E+02
1.075694684E+01  2.989367065E+02
1.077168763E+01  2.969973145E+02
1.078642843E+01  2.956434021E+02
1.080116922E+01  2.936166077E+02
1.081591001E+01  2.918746338E+02
1.083065080E+01  2.903017883E+02
1.084539159E+01  2.892544556E+02
1.086013239E+01  2.883406372E+02
1.087487318E+01  2.869900513E+02
1.088961397E+01  2.861032410E+02
1.090435476E+01  2.859907532E+02
1.091909555E+01  2.855128174E+02
1.093383635E+01  2.853705444E+02
1.094857714E+01  2.851502075E+02
1.096331793E+01  2.850243530E+02
1.097805872E+01  2.851719971E+02
1.099279951E+01  2.845027771E+02
1.100754031E+01  2.840033264E+02
1.102228110E+01  2.830249634E+02
1.103702189E+01  2.831242676E+02
1.105176268E+01  2.822788086E+02
1.106650348E+01  2.815623779E+02
1.108124427E+01  2.810841370E+02
1.109598506E+01  2.808727722E+02
1.111072585E+01  2.810971375E+02
1.112546664E+01  2.813704529E+02
1.114020744E+01  2.817317200E+02
1.115494823E+01  2.812584839E+02
1.116968902E+01  2.804391785E+02
1.118442981E+01  2.801218872E+02
1.119917060E+01  2.808219299E+02
1.121391140E+01  2.818875732E+02
1.122865219E+01  2.826532288E+02
1.124339298E+01  2.821531372E+02
1.125813377E+01  2.811357727E+02
1.127287456E+01  2.803557129E+02
1.128761536E+01  2.808028870E+02
1.130235615E+01  2.807798767E+02
1.131709694E+01  2.809559326E+02
1.133183773E+01  2.805161743E+02
1.134657853E+01  2.810059814E+02
1.136131932E+01  2.819965820E+02
1.137606011E+01  2.831040344E+02
1.139080090E+01  2.842608948E+02
1.140554169E+01  2.841358337E+02
1.142028249E+01  2.843610840E+02
1.143502328E+01  2.848034668E+02
1.144976407E+01  2.858604736E+02
1.146450486E+01  2.870835571E+02
1.147924565E+01  2.879432373E+02
1.149398645E+01  2.891262512E+02
1.150872724E+01  2.898048401E+02
1.152346803E+01  2.910682678E+02
1.153820882E+01  2.922653198E+02
1.155294961E+01  2.953014221E+02
1.156769041E+01  2.978969727E+02
1.158243120E+01  3.010527344E+02
1.159717199E+01  3.050965271E+02
1.161191278E+01  3.115821838E+02
1.162665358E+01  3.195263672E+02
1.164139437E+01  3.283481750E+02
1.165613516E+01  3.379793396E+02
1.167087595E+01  3.482066650E+02
1.168561674E+01  3.579869690E+02
1.170035754E+01  3.684363708E+02
1.171509833E+01  3.775952759E+02
1.172983912E+01  3.851712646E+02
1.174457991E+01  3.915417786E+02
1.175932070E+01  3.931822815E+02
1.177406150E+01  3.912499390E+02
1.178880229E+01  3.833109741E+02
1.180354308E+01  3.712674561E+02
1.181828387E+01  3.560137634E+02
1.183302467E+01  3.420760803E+02
1.184776546E+01  3.275982361E+02
1.186250625E+01  3.165188293E+02
1.187724704E+01  3.080475159E+02
1.189198783E+01  3.005665283E+02
1.190672863E+01  2.959091492E+02
1.192146942E+01  2.923806458E+02
1.193621021E+01  2.906681824E+02
1.195095100E+01  2.887926636E+02
1.196569179E+01  2.877316284E+02
1.198043259E+01  2.867164307E+02
1.199517338E+01  2.860735779E+02
1.200991417E+01  2.849776306E+02
1.202465496E+01  2.849114380E+02
1.203939575E+01  2.849234009E+02
1.205413655E+01  2.848512573E+02
1.206887734E+01  2.846119995E+02
1.208361813E+01  2.847947998E+02
1.209835892E+01  2.838121033E+02
1.211309972E+01  2.829528503E+02
1.212784051E+01  2.825116882E+02
1.214258130E+01  2.833967896E+02
1.215732209E+01  2.844918213E+02
1.217206288E+01  2.848212585E+02
1.218680368E+01  2.845769958E+02
1.220154447E+01  2.840058899E+02
1.221628526E+01  2.834070129E+02
1.223102605E+01  2.836535645E+02
1.224576684E+01  2.837618408E+02
1.226050764E+01  2.844743958E+02
1.227524843E+01  2.839166565E+02
1.228998922E+01  2.839606628E+02
1.230473001E+01  2.840287781E+02
1.231947080E+01  2.840251465E+02
1.233421160E+01  2.835580750E+02
1.234895239E+01  2.833724365E+02
1.236369318E+01  2.835963745E+02
1.237843397E+01  2.838971558E+02
1.239317477E+01  2.847606812E+02
1.240791556E+01  2.855513916E+02
1.242265635E+01  2.862194214E+02
1.243739714E+01  2.867546692E+02
1.245213793E+01  2.867737732E+02
1.246687873E+01  2.868410034E+02
1.248161952E+01  2.873431091E+02
1.249636031E+01  2.874282837E+02
1.251110110E+01  2.872443542E+02
1.252584189E+01  2.871511230E+02
1.254058269E+01  2.876273499E+02
1.255532348E+01  2.882931519E+02
1.257006427E+01  2.888273315E+02
1.258480506E+01  2.893782043E+02
1.259954585E+01  2.903544922E+02
1.261428665E+01  2.913531799E+02
1.262902744E+01  2.904440918E+02
1.264376823E+01  2.903903809E+02
1.265850902E+01  2.905546875E+02
1.267324982E+01  2.911543274E+02
1.268799061E+01  2.909799805E+02
1.270273140E+01  2.907681885E+02
1.271747219E+01  2.905916748E+02
1.273221298E+01  2.911308899E+02
1.274695378E+01  2.914516296E+02
1.276169457E+01  2.918165894E+02
1.277643536E+01  2.919624023E+02
1.279117615E+01  2.919334412E+02
1.280591694E+01  2.919900513E+02
1.282065774E+01  2.920065002E+02
1.283539853E+01  2.924596558E+02
1.285013932E+01  2.926341858E+02
1.286488011E+01  2.927203674E+02
1.287962091E+01  2.923519287E+02
1.289436170E+01  2.931056213E+02
1.290910249E+01  2.938777771E+02
1.292384328E+01  2.954408875E+02
1.293858407E+01  2.957538452E+02
1.295332487E+01  2.956928711E+02
1.296806566E+01  2.964109497E+02
1.298280645E+01  2.971602173E+02
1.299754724E+01  2.985475159E+02
1.301228803E+01  2.992680359E+02
1.302702883E+01  3.009426270E+02
1.304176962E+01  3.026710205E+02
1.305651041E+01  3.045649109E+02
1.307125120E+01  3.061172791E+02
1.308599199E+01  3.087685242E+02
1.310073279E+01  3.111358948E+02
1.311547358E+01  3.123156433E+02
1.313021437E+01  3.140119629E+02
1.314495516E+01  3.171029968E+02
1.315969596E+01  3.206437683E+02
1.317443675E+01  3.247794189E+02
1.318917754E+01  3.291346741E+02
1.320391833E+01  3.346888733E+02
1.321865912E+01  3.412352600E+02
1.323339992E+01  3.480706482E+02
1.324814071E+01  3.572431946E+02
1.326288150E+01  3.677824402E+02
1.327762229E+01  3.798663635E+02
1.329236308E+01  3.903238831E+02
1.330710388E+01  3.995185547E+02
1.332184467E+01  4.076507874E+02
1.333658546E+01  4.127530518E+02
1.335132625E+01  4.140523376E+02
1.336606704E+01  4.128246765E+02
1.338080784E+01  4.077742310E+02
1.339554863E+01  4.001382141E+02
1.341028942E+01  3.900377502E+02
1.342503021E+01  3.796600952E+02
1.343977101E+01  3.685130310E+02
1.345451180E+01  3.580021057E+02
1.346925259E+01  3.502515564E+02
1.348399338E+01  3.439192200E+02
1.349873417E+01  3.402878723E+02
1.351347497E+01  3.374021912E+02
1.352821576E+01  3.365558777E+02
1.354295655E+01  3.362781982E+02
1.355769734E+01  3.364934387E+02
1.357243813E+01  3.360085754E+02
1.358717893E+01  3.324064636E+02
1.360191972E+01  3.235161743E+02
1.361666051E+01  3.184657288E+02
1.363140130E+01  3.133270874E+02
1.364614209E+01  3.082680359E+02
1.366088289E+01  3.054483337E+02
1.367562368E+01  3.050480957E+02
1.369036447E+01  3.061642761E+02
1.370510526E+01  3.073653870E+02
1.371984606E+01  3.075393372E+02
1.373458685E+01  3.081173706E+02
1.374932764E+01  3.084762878E+02
1.376406843E+01  3.094286804E+02
1.377880922E+01  3.118844299E+02
1.379355002E+01  3.144483643E+02
1.380829081E+01  3.197897034E+02
1.382303160E+01  3.231074829E+02
1.383777239E+01  3.281474915E+02
1.385251318E+01  3.327304993E+02
1.386725398E+01  3.373584900E+02
1.388199477E+01  3.404714050E+02
1.389673556E+01  3.433140259E+02
1.391147635E+01  3.437893982E+02
1.392621715E+01  3.449021606E+02
1.394095794E+01  3.445725098E+02
1.395569873E+01  3.437276917E+02
1.397043952E+01  3.424517212E+02
1.398518031E+01  3.404293823E+02
1.399992111E+01  3.388430786E+02
1.401466190E+01  3.366340637E+02
1.402940269E+01  3.341679382E+02
1.404414348E+01  3.318071899E+02
1.405888427E+01  3.294937439E+02
1.407362507E+01  3.276733398E+02
1.408836586E+01  3.273645020E+02
1.410310665E+01  3.286715698E+02
1.411784744E+01  3.302244873E+02
1.413258823E+01  3.310612793E+02
1.414732903E+01  3.306802673E+02
1.416206982E+01  3.296021729E+02
1.417681061E+01  3.324384460E+02
1.419155140E+01  3.382226868E+02
1.420629220E+01  3.423122253E+02
1.422103299E+01  3.411885071E+02
1.423577378E+01  3.383882141E+02
1.425051457E+01  3.366754150E+02
1.426525536E+01  3.359674377E+02
1.427999616E+01  3.337421875E+02
1.429473695E+01  3.325669556E+02
1.430947774E+01  3.309308167E+02
1.432421853E+01  3.303248596E+02
1.433895932E+01  3.288123779E+02
1.435370012E+01  3.287401123E+02
1.436844091E+01  3.290260925E+02
1.438318170E+01  3.292832031E+02
1.439792249E+01  3.289603882E+02
1.441266328E+01  3.285852966E+02
1.442740408E+01  3.274762573E+02
1.444214487E+01  3.266383057E+02
1.445688566E+01  3.265984497E+02
1.447162645E+01  3.270997620E+02
1.448636725E+01  3.270313110E+02
1.450110804E+01  3.277750549E+02
1.451584883E+01  3.290644531E+02
1.453058962E+01  3.293895264E+02
1.454533041E+01  3.304454651E+02
1.456007121E+01  3.315112305E+02
1.457481200E+01  3.336337891E+02
1.458955279E+01  3.353016052E+02
1.460429358E+01  3.364146118E+02
1.461903437E+01  3.380341492E+02
1.463377517E+01  3.419360352E+02
1.464851596E+01  3.466637573E+02
1.466325675E+01  3.523236389E+02
1.467799754E+01  3.576954346E+02
1.469273833E+01  3.641881714E+02
1.470747913E+01  3.699434509E+02
1.472221992E+01  3.752015991E+02
1.473696071E+01  3.802434692E+02
1.475170150E+01  3.852779236E+02
1.476644230E+01  3.884824524E+02
1.478118309E+01  3.895845337E+02
1.479592388E+01  3.887002869E+02
1.481066467E+01  3.873869019E+02
1.482540546E+01  3.845315857E+02
1.484014626E+01  3.810884094E+02
1.485488705E+01  3.759850769E+02
1.486962784E+01  3.714614258E+02
1.488436863E+01  3.664857178E+02
1.489910942E+01  3.609778137E+02
1.491385022E+01  3.571703796E+02
1.492859101E+01  3.537009583E+02
1.494333180E+01  3.499928589E+02
1.495807259E+01  3.465933533E+02
1.497281339E+01  3.440383606E+02
1.498755418E+01  3.414274902E+02
1.500229497E+01  3.398716736E+02
1.501703576E+01  3.381558533E+02
1.503177655E+01  3.372047424E+02
1.504651735E+01  3.355496826E+02
1.506125814E+01  3.341506653E+02
1.507599893E+01  3.338621826E+02
1.509073972E+01  3.344501038E+02
1.510548051E+01  3.350708313E+02
1.512022131E+01  3.353879395E+02
1.513496210E+01  3.356840820E+02
1.514970289E+01  3.370073853E+02
1.516444368E+01  3.382410278E+02
1.517918447E+01  3.395044250E+02
1.519392527E+01  3.401914673E+02
1.520866606E+01  3.417037048E+02
1.522340685E+01  3.427664490E+02
1.523814764E+01  3.441118469E+02
1.525288844E+01  3.448381653E+02
1.526762923E+01  3.448040771E+02
1.528237002E+01  3.453556213E+02
1.529711081E+01  3.458759155E+02
1.531185160E+01  3.460186462E+02
1.532659240E+01  3.448736267E+02
1.534133319E+01  3.438796997E+02
1.535607398E+01  3.430133362E+02
1.537081477E+01  3.413420410E+02
1.538555556E+01  3.386358032E+02
1.540029636E+01  3.364486084E+02
1.541503715E+01  3.343727112E+02
1.542977794E+01  3.330301514E+02
1.544451873E+01  3.316823425E+02
1.545925952E+01  3.305963745E+02
1.547400032E+01  3.291747437E+02
1.548874111E+01  3.278923950E+02
1.550348190E+01  3.268301697E+02
1.551822269E+01  3.254524536E+02
1.553296349E+01  3.243526306E+02
1.554770428E+01  3.230933838E+02
1.556244507E+01  3.224797974E+02
1.557718586E+01  3.219291382E+02
1.559192665E+01  3.214083862E+02
1.560666745E+01  3.211150818E+02
1.562140824E+01  3.216999817E+02
1.563614903E+01  3.220468140E+02
1.565088982E+01  3.222922668E+02
1.566563061E+01  3.212496338E+02
1.568037141E+01  3.202714539E+02
1.569511220E+01  3.193531189E+02
1.570985299E+01  3.186606750E+02
1.572459378E+01  3.190004578E+02
1.573933457E+01  3.194739990E+02
1.575407537E+01  3.198305969E+02
1.576881616E+01  3.196463013E+02
1.578355695E+01  3.199561157E+02
1.579829774E+01  3.197126160E+02
1.581303854E+01  3.187456055E+02
1.582777933E+01  3.187068481E+02
1.584252012E+01  3.190284729E+02
1.585726091E+01  3.205768738E+02
1.587200170E+01  3.208789368E+02
1.588674250E+01  3.211751099E+02
1.590148329E+01  3.212959290E+02
1.591622408E+01  3.218087769E+02
1.593096487E+01  3.227799072E+02
1.594570566E+01  3.234845886E+02
1.596044646E+01  3.239254456E+02
1.597518725E+01  3.239011230E+02
1.598992804E+01  3.240885315E+02
1.600466883E+01  3.247223511E+02
1.601940963E+01  3.257444763E+02
1.603415042E+01  3.257560730E+02
1.604889121E+01  3.264426880E+02
1.606363200E+01  3.268953552E+02
1.607837279E+01  3.267981873E+02
1.609311359E+01  3.259808960E+02
1.610785438E+01  3.258919983E+02
1.612259517E+01  3.261833191E+02
1.613733596E+01  3.256574402E+02
1.615207675E+01  3.255046387E+02
1.616681755E+01  3.261160889E+02
1.618155834E+01  3.263827515E+02
1.619629913E+01  3.264602051E+02
1.621103992E+01  3.269190369E+02
1.622578071E+01  3.278004150E+02
1.624052151E+01  3.277607727E+02
1.625526230E+01  3.267826538E+02
1.627000309E+01  3.265447388E+02
1.628474388E+01  3.269184875E+02
1.629948468E+01  3.276609497E+02
1.631422547E+01  3.278847961E+02
1.632896626E+01  3.273505249E+02
1.634370705E+01  3.271716309E+02
1.635844784E+01  3.267401428E+02
1.637318864E+01  3.260961914E+02
1.638792943E+01  3.255955505E+02
1.640267022E+01  3.258233643E+02
1.641741101E+01  3.259610291E+02
1.643215180E+01  3.257294922E+02
1.644689260E+01  3.254183655E+02
1.646163339E+01  3.245762024E+02
1.647637418E+01  3.243080139E+02
1.649111497E+01  3.240104370E+02
1.650585576E+01  3.229501038E+02
1.652059656E+01  3.218577576E+02
1.653533735E+01  3.218860474E+02
1.655007814E+01  3.227917480E+02
1.656481893E+01  3.237138062E+02
1.657955973E+01  3.231558533E+02
1.659430052E+01  3.228751221E+02
1.660904131E+01  3.223733826E+02
1.662378210E+01  3.217661133E+02
1.663852289E+01  3.221258850E+02
1.665326369E+01  3.224092407E+02
1.666800448E+01  3.226300354E+02
1.668274527E+01  3.217957458E+02
1.669748606E+01  3.215541687E+02
1.671222685E+01  3.216072388E+02
1.672696765E+01  3.221627808E+02
1.674170844E+01  3.228488159E+02
1.675644923E+01  3.225263977E+02
1.677119002E+01  3.220635986E+02
1.678593081E+01  3.225982361E+02
1.680067161E+01  3.238825989E+02
1.681541240E+01  3.236907654E+02
1.683015319E+01  3.239925537E+02
1.684489398E+01  3.233024292E+02
1.685963478E+01  3.231074524E+02
1.687437557E+01  3.230997314E+02
1.688911636E+01  3.236365662E+02
1.690385715E+01  3.240290833E+02
1.691859794E+01  3.237980957E+02
1.693333874E+01  3.237099609E+02
1.694807953E+01  3.241896057E+02
1.696282032E+01  3.248058472E+02
1.697756111E+01  3.256760559E+02
1.699230190E+01  3.267206726E+02
1.700704270E+01  3.284627075E+02
1.702178349E+01  3.294355469E+02
1.703652428E+01  3.298183899E+02
1.705126507E+01  3.303646851E+02
1.706600587E+01  3.315268555E+02
1.708074666E+01  3.331868286E+02
1.709548745E+01  3.340069885E+02
1.711022824E+01  3.345064392E+02
1.712496903E+01  3.348121643E+02
1.713970983E+01  3.350696716E+02
1.715445062E+01  3.350466309E+02
1.716919141E+01  3.344244080E+02
1.718393220E+01  3.336963196E+02
1.719867299E+01  3.329410400E+02
1.721341379E+01  3.317925415E+02
1.722815458E+01  3.304781799E+02
1.724289537E+01  3.302162170E+02
1.725763616E+01  3.306381836E+02
1.727237695E+01  3.312487183E+02
1.728711775E+01  3.299567261E+02
1.730185854E+01  3.284783936E+02
1.731659933E+01  3.280575562E+02
1.733134012E+01  3.289813232E+02
1.734608092E+01  3.283773804E+02
1.736082171E+01  3.277518005E+02
1.737556250E+01  3.263746033E+02
1.739030329E+01  3.266703491E+02
1.740504408E+01  3.269003296E+02
1.741978488E+01  3.272468567E+02
1.743452567E+01  3.265394897E+02
1.744926646E+01  3.251878052E+02
1.746400725E+01  3.247977905E+02
1.747874804E+01  3.251834106E+02
1.749348884E+01  3.248435974E+02
1.750822963E+01  3.247118835E+02
1.752297042E+01  3.241179504E+02
1.753771121E+01  3.241839905E+02
1.755245200E+01  3.245682678E+02
1.756719280E+01  3.251099548E+02
1.758193359E+01  3.258699646E+02
1.759667438E+01  3.258107300E+02
1.761141517E+01  3.253234863E+02
1.762615597E+01  3.249957275E+02
1.764089676E+01  3.246785583E+02
1.765563755E+01  3.250291138E+02
1.767037834E+01  3.252120056E+02
1.768511913E+01  3.250281067E+02
1.769985993E+01  3.248072205E+02
1.771460072E+01  3.241441650E+02
1.772934151E+01  3.227305298E+02
1.774408230E+01  3.222374268E+02
1.775882309E+01  3.231210632E+02
1.777356389E+01  3.244732361E+02
1.778830468E+01  3.249862061E+02
1.780304547E+01  3.253558655E+02
1.781778626E+01  3.256410217E+02
1.783252705E+01  3.260336609E+02
1.784726785E+01  3.264601135E+02
1.786200864E+01  3.270695190E+02
1.787674943E+01  3.267858276E+02
1.789149022E+01  3.268402710E+02
1.790623102E+01  3.274208069E+02
1.792097181E+01  3.277821350E+02
1.793571260E+01  3.292833557E+02
1.795045339E+01  3.307219543E+02
1.796519418E+01  3.317157593E+02
1.797993498E+01  3.321979675E+02
1.799467577E+01  3.327077942E+02
1.800941656E+01  3.335980225E+02
1.802415735E+01  3.343360901E+02
1.803889814E+01  3.352801514E+02
1.805363894E+01  3.367445374E+02
1.806837973E+01  3.370255127E+02
1.808312052E+01  3.383121033E+02
1.809786131E+01  3.387012329E+02
1.811260211E+01  3.387023621E+02
1.812734290E+01  3.388986511E+02
1.814208369E+01  3.387744751E+02
1.815682448E+01  3.380640564E+02
1.817156527E+01  3.385461121E+02
1.818630607E+01  3.390347290E+02
1.820104686E+01  3.385182190E+02
1.821578765E+01  3.364853516E+02
1.823052844E+01  3.352100525E+02
1.824526923E+01  3.357487793E+02
1.826001003E+01  3.366226807E+02
1.827475082E+01  3.363159180E+02
1.828949161E+01  3.355654602E+02
1.830423240E+01  3.342596741E+02
1.831897319E+01  3.342456665E+02
1.833371399E+01  3.340611267E+02
1.834845478E+01  3.337734375E+02
1.836319557E+01  3.330684204E+02
1.837793636E+01  3.333565674E+02
1.839267716E+01  3.332066956E+02
1.840741795E+01  3.335864258E+02
1.842215874E+01  3.354971924E+02
1.843689953E+01  3.367038574E+02
1.845164032E+01  3.362614441E+02
1.846638112E+01  3.348045044E+02
1.848112191E+01  3.336570435E+02
1.849586270E+01  3.331693115E+02
1.851060349E+01  3.325879822E+02
1.852534428E+01  3.320686951E+02
1.854008508E+01  3.325670166E+02
1.855482587E+01  3.321837463E+02
1.856956666E+01  3.326704407E+02
1.858430745E+01  3.329326477E+02
1.859904824E+01  3.323013306E+02
1.861378904E+01  3.314392090E+02
1.862852983E+01  3.302163086E+02
1.864327062E+01  3.299701843E+02
1.865801141E+01  3.301017456E+02
1.867275221E+01  3.303190308E+02
1.868749300E+01  3.299359131E+02
1.870223379E+01  3.300885925E+02
1.871697458E+01  3.289005737E+02
1.873171537E+01  3.288061218E+02
1.874645617E+01  3.294444580E+02
1.876119696E+01  3.298669434E+02
1.877593775E+01  3.296809998E+02
1.879067854E+01  3.290264587E+02
1.880541933E+01  3.288717346E+02
1.882016013E+01  3.295577393E+02
1.883490092E+01  3.300567017E+02
1.884964171E+01  3.299642639E+02
1.886438250E+01  3.299037781E+02
1.887912329E+01  3.295239868E+02
1.889386409E+01  3.288318787E+02
1.890860488E+01  3.275856323E+02
1.892334567E+01  3.269597473E+02
1.893808646E+01  3.260547180E+02
1.895282726E+01  3.258544617E+02
1.896756805E+01  3.270227661E+02
1.898230884E+01  3.268224487E+02
1.899704963E+01  3.259749451E+02
1.901179042E+01  3.255408936E+02
1.902653122E+01  3.253196411E+02
1.904127201E+01  3.249192200E+02
1.905601280E+01  3.242483215E+02
1.907075359E+01  3.232599487E+02
1.908549438E+01  3.224213867E+02
1.910023518E+01  3.230335999E+02
1.911497597E+01  3.240290222E+02
1.912971676E+01  3.240688171E+02
1.914445755E+01  3.234188843E+02
1.915919834E+01  3.230186462E+02
1.917393914E+01  3.226661987E+02
1.918867993E+01  3.227621460E+02
1.920342072E+01  3.228615112E+02
1.921816151E+01  3.225080872E+02
1.923290231E+01  3.226271667E+02
1.924764310E+01  3.227962036E+02
1.926238389E+01  3.222802734E+02
1.927712468E+01  3.215919495E+02
1.929186547E+01  3.213390198E+02
1.930660627E+01  3.207875671E+02
1.932134706E+01  3.212085266E+02
1.933608785E+01  3.211890259E+02
1.935082864E+01  3.216625366E+02
1.936556943E+01  3.212433167E+02
1.938031023E+01  3.204444275E+02
1.939505102E+01  3.203417969E+02
1.940979181E+01  3.197178040E+02
1.942453260E+01  3.197941895E+02
1.943927340E+01  3.197471924E+02
1.945401419E+01  3.209104919E+02
1.946875498E+01  3.210148010E+02
1.948349577E+01  3.203276062E+02
1.949823656E+01  3.191716919E+02
1.951297736E+01  3.198310547E+02
1.952771815E+01  3.206469421E+02
1.954245894E+01  3.207574158E+02
1.955719973E+01  3.195731812E+02
1.957194052E+01  3.189286804E+02
1.958668132E+01  3.190686035E+02
1.960142211E+01  3.195860291E+02
1.961616290E+01  3.199125061E+02
1.963090369E+01  3.198708191E+02
1.964564448E+01  3.196458740E+02
1.966038528E+01  3.197106018E+02
1.967512607E+01  3.197460327E+02
1.968986686E+01  3.194742737E+02
1.970460765E+01  3.200641785E+02
1.971934845E+01  3.208322144E+02
1.973408924E+01  3.209270630E+02
1.974883003E+01  3.205414124E+02
1.976357082E+01  3.197659607E+02
1.977831161E+01  3.195343018E+02
1.979305241E+01  3.189158325E+02
1.980779320E+01  3.198743896E+02
1.982253399E+01  3.206790466E+02
1.983727478E+01  3.214671631E+02
1.985201557E+01  3.217337341E+02
1.986675637E+01  3.228611450E+02
1.988149716E+01  3.236714783E+02
1.989623795E+01  3.234280396E+02
1.991097874E+01  3.229251404E+02
1.992571953E+01  3.229123535E+02
1.994046033E+01  3.223993530E+02
1.995520112E+01  3.214078674E+02
1.996994191E+01  3.212860718E+02
1.998468270E+01  3.210887756E+02
1.999942350E+01  3.214158630E+02
2.001416429E+01  3.221012573E+02
2.002890508E+01  3.221782837E+02
2.004364587E+01  3.227822266E+02
2.005838666E+01  3.233804321E+02
2.007312746E+01  3.247865601E+02
2.008786825E+01  3.255013733E+02
2.010260904E+01  3.255706177E+02
2.011734983E+01  3.258874817E+02
2.013209062E+01  3.269302368E+02
2.014683142E+01  3.285739441E+02
2.016157221E+01  3.298682251E+02
2.017631300E+01  3.311849670E+02
2.019105379E+01  3.326605835E+02
2.020579458E+01  3.354804993E+02
2.022053538E+01  3.378617554E+02
2.023527617E+01  3.416022339E+02
2.025001696E+01  3.450783386E+02
2.026475775E+01  3.495832825E+02
2.027949855E+01  3.548831482E+02
2.029423934E+01  3.609596558E+02
2.030898013E+01  3.669649048E+02
2.032372092E+01  3.718640442E+02
2.033846171E+01  3.759765625E+02
2.035320251E+01  3.794590759E+02
2.036794330E+01  3.818642578E+02
2.038268409E+01  3.823970032E+02
2.039742488E+01  3.805930176E+02
2.041216567E+01  3.785064697E+02
2.042690647E+01  3.761575317E+02
2.044164726E+01  3.732828064E+02
2.045638805E+01  3.689165955E+02
2.047112884E+01  3.638609619E+02
2.048586964E+01  3.587294922E+02
2.050061043E+01  3.533059387E+02
2.051535122E+01  3.485899353E+02
2.053009201E+01  3.448139954E+02
2.054483280E+01  3.417118225E+02
2.055957360E+01  3.392318726E+02
2.057431439E+01  3.367355652E+02
2.058905518E+01  3.349222107E+02
2.060379597E+01  3.333016968E+02
2.061853676E+01  3.322773438E+02
2.063327756E+01  3.314377747E+02
2.064801835E+01  3.311199646E+02
2.066275914E+01  3.304983521E+02
2.067749993E+01  3.300664673E+02
2.069224072E+01  3.300704041E+02
2.070698152E+01  3.302560730E+02
2.072172231E+01  3.307035522E+02
2.073646310E+01  3.311676025E+02
2.075120389E+01  3.321448975E+02
2.076594469E+01  3.325475464E+02
2.078068548E+01  3.337567749E+02
2.079542627E+01  3.335780029E+02
2.081016706E+01  3.327627869E+02
2.082490785E+01  3.317364502E+02
2.083964865E+01  3.314792175E+02
2.085438944E+01  3.312421265E+02
2.086913023E+01  3.308312073E+02
2.088387102E+01  3.306517334E+02
2.089861181E+01  3.296004944E+02
2.091335261E+01  3.294810181E+02
2.092809340E+01  3.287623596E+02
2.094283419E+01  3.287606201E+02
2.095757498E+01  3.277796631E+02
2.097231577E+01  3.268748169E+02
2.098705657E+01  3.264986572E+02
2.100179736E+01  3.268437500E+02
2.101653815E+01  3.276685486E+02
2.103127894E+01  3.268332520E+02
2.104601974E+01  3.257005310E+02
2.106076053E+01  3.261069336E+02
2.107550132E+01  3.262604675E+02
2.109024211E+01  3.264866333E+02
2.110498290E+01  3.267741699E+02
2.111972370E+01  3.264509277E+02
2.113446449E+01  3.260122986E+02
2.114920528E+01  3.250035706E+02
2.116394607E+01  3.243936157E+02
2.117868686E+01  3.239225159E+02
2.119342766E+01  3.236669617E+02
2.120816845E+01  3.231591492E+02
2.122290924E+01  3.236600952E+02
2.123765003E+01  3.243534851E+02
2.125239082E+01  3.240791016E+02
2.126713162E+01  3.231597900E+02
2.128187241E+01  3.228406982E+02
2.129661320E+01  3.222372131E+02
2.131135399E+01  3.231856689E+02
2.132609479E+01  3.233510742E+02
2.134083558E+01  3.231795959E+02
2.135557637E+01  3.223928223E+02
2.137031716E+01  3.231134338E+02
2.138505795E+01  3.228771057E+02
2.139979875E+01  3.227973022E+02
2.141453954E+01  3.215307007E+02
2.142928033E+01  3.215698242E+02
2.144402112E+01  3.219792175E+02
2.145876191E+01  3.226393738E+02
2.147350271E+01  3.233749084E+02
2.148824350E+01  3.235996094E+02
2.150298429E+01  3.244710083E+02
2.151772508E+01  3.242417908E+02
2.153246588E+01  3.234862366E+02
2.154720667E+01  3.230204773E+02
2.156194746E+01  3.236935730E+02
2.157668825E+01  3.236984253E+02
2.159142904E+01  3.235266724E+02
2.160616984E+01  3.226636658E+02
2.162091063E+01  3.223862305E+02
2.163565142E+01  3.227035828E+02
2.165039221E+01  3.231743774E+02
2.166513300E+01  3.239415894E+02
2.167987380E+01  3.242151794E+02
2.169461459E+01  3.241330566E+02
2.170935538E+01  3.239664001E+02
2.172409617E+01  3.254128418E+02
2.173883696E+01  3.262072449E+02
2.175357776E+01  3.265807190E+02
2.176831855E+01  3.262178345E+02
2.178305934E+01  3.263817139E+02
2.179780013E+01  3.264075012E+02
2.181254093E+01  3.266948547E+02
2.182728172E+01  3.272753296E+02
2.184202251E+01  3.272762451E+02
2.185676330E+01  3.282113342E+02
2.187150409E+01  3.285075989E+02
2.188624489E+01  3.281608276E+02
2.190098568E+01  3.274920959E+02
2.191572647E+01  3.281546631E+02
2.193046726E+01  3.283238831E+02
2.194520805E+01  3.285897217E+02
2.195994885E+01  3.286881104E+02
2.197468964E+01  3.289748535E+02
2.198943043E+01  3.281537170E+02
2.200417122E+01  3.279338989E+02
2.201891201E+01  3.286216736E+02
2.203365281E+01  3.288776855E+02
2.204839360E+01  3.284272461E+02
2.206313439E+01  3.269316711E+02
2.207787518E+01  3.260124512E+02
2.209261598E+01  3.261333008E+02
2.210735677E+01  3.264630737E+02
2.212209756E+01  3.262458801E+02
2.213683835E+01  3.245368042E+02
2.215157914E+01  3.238680420E+02
2.216631994E+01  3.229877014E+02
2.218106073E+01  3.240878296E+02
2.219580152E+01  3.247788086E+02
2.221054231E+01  3.255732422E+02
2.222528310E+01  3.250391541E+02
2.224002390E+01  3.247094116E+02
2.225476469E+01  3.258716736E+02
2.226950548E+01  3.275521240E+02
2.228424627E+01  3.292155151E+02
2.229898706E+01  3.302527771E+02
2.231372786E+01  3.314818726E+02
2.232846865E+01  3.323419495E+02
2.234320944E+01  3.329616089E+02
2.235795023E+01  3.340657043E+02
2.237269103E+01  3.349959412E+02
2.238743182E+01  3.355985413E+02
2.240217261E+01  3.365327759E+02
2.241691340E+01  3.369463806E+02
2.243165419E+01  3.368516235E+02
2.244639499E+01  3.366219482E+02
2.246113578E+01  3.369907227E+02
2.247587657E+01  3.369849548E+02
2.249061736E+01  3.372417297E+02
2.250535815E+01  3.371187439E+02
2.252009895E+01  3.370625000E+02
2.253483974E+01  3.384762573E+02
2.254958053E+01  3.396399841E+02
2.256432132E+01  3.396110840E+02
2.257906212E+01  3.397199097E+02
2.259380291E+01  3.405157471E+02
2.260854370E+01  3.409335938E+02
2.262328449E+01  3.417752686E+02
2.263802528E+01  3.425618591E+02
2.265276608E+01  3.433364258E+02
2.266750687E+01  3.436998291E+02
2.268224766E+01  3.443715210E+02
2.269698845E+01  3.441736450E+02
2.271172924E+01  3.439387512E+02
2.272647004E+01  3.441400452E+02
2.274121083E+01  3.440609131E+02
2.275595162E+01  3.440364990E+02
2.277069241E+01  3.441745911E+02
2.278543320E+01  3.434528503E+02
2.280017400E+01  3.412752686E+02
2.281491479E+01  3.391679382E+02
2.282965558E+01  3.379968567E+02
2.284439637E+01  3.366583862E+02
2.285913717E+01  3.343112183E+02
2.287387796E+01  3.334064331E+02
2.288861875E+01  3.335942688E+02
2.290335954E+01  3.341871643E+02
2.291810033E+01  3.349040527E+02
2.293284113E+01  3.347443237E+02
2.294758192E+01  3.345368652E+02
2.296232271E+01  3.337950745E+02
2.297706350E+01  3.332568665E+02
2.299180429E+01  3.331152344E+02
2.300654509E+01  3.332467651E+02
2.302128588E+01  3.334611206E+02
2.303602667E+01  3.336876526E+02
2.305076746E+01  3.346973267E+02
2.306550825E+01  3.347695312E+02
2.308024905E+01  3.331833496E+02
2.309498984E+01  3.330679626E+02
2.310973063E+01  3.338543701E+02
2.312447142E+01  3.352832947E+02
2.313921222E+01  3.342470398E+02
2.315395301E+01  3.342067871E+02
2.316869380E+01  3.352714539E+02
2.318343459E+01  3.371512756E+02
2.319817538E+01  3.385237732E+02
2.321291618E+01  3.392738647E+02
2.322765697E+01  3.409140320E+02
2.324239776E+01  3.429200439E+02
2.325713855E+01  3.442709961E+02
2.327187934E+01  3.446695251E+02
2.328662014E+01  3.448232117E+02
2.330136093E+01  3.471407776E+02
2.331610172E+01  3.491518555E+02
2.333084251E+01  3.508198547E+02
2.334558330E+01  3.532379150E+02
2.336032410E+01  3.557445068E+02
2.337506489E+01  3.584120789E+02
2.338980568E+01  3.599007874E+02
2.340454647E+01  3.625469360E+02
2.341928727E+01  3.647867432E+02
2.343402806E+01  3.668318787E+02
2.344876885E+01  3.696984253E+02
2.346350964E+01  3.712903137E+02
2.347825043E+01  3.714449768E+02
2.349299123E+01  3.693867188E+02
2.350773202E+01  3.685234985E+02
2.352247281E+01  3.684243469E+02
2.353721360E+01  3.677459106E+02
2.355195439E+01  3.666665039E+02
2.356669519E+01  3.649813232E+02
2.358143598E+01  3.622243042E+02
2.359617677E+01  3.602777405E+02
2.361091756E+01  3.575065918E+02
2.362565836E+01  3.550289917E+02
2.364039915E+01  3.539069519E+02
2.365513994E+01  3.535871887E+02
2.366988073E+01  3.525862122E+02
2.368462152E+01  3.506085205E+02
2.369936232E+01  3.489641724E+02
2.371410311E+01  3.481685486E+02
2.372884390E+01  3.477311096E+02
2.374358469E+01  3.467288208E+02
2.375832548E+01  3.458496704E+02
2.377306628E+01  3.442531128E+02
2.378780707E+01  3.437052917E+02
2.380254786E+01  3.439024353E+02
2.381728865E+01  3.449851379E+02
2.383202944E+01  3.458974915E+02
2.384677024E+01  3.457800293E+02
2.386151103E+01  3.450163269E+02
2.387625182E+01  3.443654785E+02
2.389099261E+01  3.437810059E+02
2.390573341E+01  3.455636902E+02
2.392047420E+01  3.479390564E+02
2.393521499E+01  3.486081543E+02
2.394995578E+01  3.477969055E+02
2.396469657E+01  3.490760803E+02
2.397943737E+01  3.504569397E+02
2.399417816E+01  3.519549255E+02
2.400891895E+01  3.535540161E+02
2.402365974E+01  3.543790588E+02
2.403840053E+01  3.545723572E+02
2.405314133E+01  3.544849243E+02
2.406788212E+01  3.542000427E+02
2.408262291E+01  3.552132568E+02
2.409736370E+01  3.564222107E+02
2.411210449E+01  3.567219238E+02
2.412684529E+01  3.552612305E+02
2.414158608E+01  3.538732605E+02
2.415632687E+01  3.540186157E+02
2.417106766E+01  3.540458984E+02
2.418580846E+01  3.531152039E+02
2.420054925E+01  3.518927917E+02
2.421529004E+01  3.511867371E+02
2.423003083E+01  3.503211975E+02
2.424477162E+01  3.492681274E+02
2.425951242E+01  3.489185791E+02
2.427425321E+01  3.491997681E+02
2.428899400E+01  3.498030701E+02
2.430373479E+01  3.498687439E+02
2.431847558E+01  3.507290039E+02
2.433321638E+01  3.517137756E+02
2.434795717E+01  3.542469482E+02
2.436269796E+01  3.572918396E+02
2.437743875E+01  3.595328979E+02
2.439217954E+01  3.599179077E+02
2.440692034E+01  3.598630066E+02
2.442166113E+01  3.603276062E+02
2.443640192E+01  3.604493713E+02
2.445114271E+01  3.602777710E+02
2.446588351E+01  3.602764587E+02
2.448062430E+01  3.594040527E+02
2.449536509E+01  3.568029175E+02
2.451010588E+01  3.546702271E+02
2.452484667E+01  3.506601562E+02
2.453958747E+01  3.475183411E+02
2.455432826E+01  3.462639465E+02
2.456906905E+01  3.452129517E+02
2.458380984E+01  3.436114502E+02
2.459855063E+01  3.410341492E+02
2.461329143E+01  3.386002502E+02
2.462803222E+01  3.366421204E+02
2.464277301E+01  3.361238708E+02
2.465751380E+01  3.352215271E+02
2.467225460E+01  3.342034912E+02
2.468699539E+01  3.330811768E+02
2.470173618E+01  3.315113831E+02
2.471647697E+01  3.316103516E+02
2.473121776E+01  3.322153931E+02
2.474595856E+01  3.330866089E+02
2.476069935E+01  3.326612549E+02
2.477544014E+01  3.321301575E+02
2.479018093E+01  3.316287537E+02
2.480492172E+01  3.310391541E+02
2.481966252E+01  3.311572876E+02
2.483440331E+01  3.307366943E+02
2.484914410E+01  3.308501587E+02
2.486388489E+01  3.309606018E+02
2.487862568E+01  3.307811584E+02
2.489336648E+01  3.311589050E+02
2.490810727E+01  3.308696289E+02
2.492284806E+01  3.305016785E+02
2.493758885E+01  3.307455139E+02
2.495232965E+01  3.304869995E+02
2.496707044E+01  3.302278442E+02
2.498181123E+01  3.298255310E+02
2.499655202E+01  3.297966309E+02
2.501129281E+01  3.297660217E+02
2.502603361E+01  3.299642944E+02
2.504077440E+01  3.301965027E+02
2.505551519E+01  3.300545044E+02
2.507025598E+01  3.306940002E+02
2.508499677E+01  3.312634888E+02
2.509973757E+01  3.311714172E+02
2.511447836E+01  3.310919800E+02
2.512921915E+01  3.315420837E+02
2.514395994E+01  3.307095032E+02
2.515870073E+01  3.299532471E+02
2.517344153E+01  3.299989014E+02
2.518818232E+01  3.308344116E+02
2.520292311E+01  3.309900208E+02
2.521766390E+01  3.310280457E+02
2.523240470E+01  3.307339172E+02
2.524714549E+01  3.311029358E+02
2.526188628E+01  3.309727478E+02
2.527662707E+01  3.310867615E+02
2.529136786E+01  3.314648438E+02
2.530610866E+01  3.319523010E+02
2.532084945E+01  3.329211731E+02
2.533559024E+01  3.322241211E+02
2.535033103E+01  3.329053955E+02
2.536507182E+01  3.338891602E+02
2.537981262E+01  3.358828125E+02
2.539455341E+01  3.362452698E+02
2.540929420E+01  3.359599304E+02
2.542403499E+01  3.362772217E+02
2.543877578E+01  3.361605530E+02
2.545351658E+01  3.359555969E+02
2.546825737E+01  3.375088806E+02
2.548299816E+01  3.393454590E+02
2.549773895E+01  3.398412781E+02
2.551247975E+01  3.391568909E+02
2.552722054E+01  3.403740540E+02
2.554196133E+01  3.397268982E+02
2.555670212E+01  3.402399292E+02
2.557144291E+01  3.421261597E+02
2.558618371E+01  3.440545959E+02
2.560092450E+01  3.441256409E+02
2.561566529E+01  3.434965515E+02
2.563040608E+01  3.432509460E+02
2.564514687E+01  3.441477356E+02
2.565988767E+01  3.445816040E+02
2.567462846E+01  3.455931702E+02
2.568936925E+01  3.455625000E+02
2.570411004E+01  3.449620972E+02
2.571885084E+01  3.449727173E+02
2.573359163E+01  3.451664734E+02
2.574833242E+01  3.453309937E+02
2.576307321E+01  3.455651550E+02
2.577781400E+01  3.456588135E+02
2.579255480E+01  3.464439697E+02
2.580729559E+01  3.466280823E+02
2.582203638E+01  3.473728943E+02
2.583677717E+01  3.461170044E+02
2.585151796E+01  3.455298462E+02
2.586625876E+01  3.441470337E+02
2.588099955E+01  3.432250977E+02
2.589574034E+01  3.431427612E+02
2.591048113E+01  3.421878357E+02
2.592522192E+01  3.409871216E+02
2.593996272E+01  3.416411743E+02
2.595470351E+01  3.424650574E+02
2.596944430E+01  3.431767883E+02
2.598418509E+01  3.413649597E+02
2.599892589E+01  3.400005798E+02
2.601366668E+01  3.386287231E+02
2.602840747E+01  3.381753235E+02
2.604314826E+01  3.380964355E+02
2.605788905E+01  3.382156372E+02
2.607262985E+01  3.373972473E+02
2.608737064E+01  3.368489990E+02
2.610211143E+01  3.358278809E+02
2.611685222E+01  3.351758728E+02
2.613159301E+01  3.345730591E+02
2.614633381E+01  3.333538818E+02
2.616107460E+01  3.324529724E+02
2.617581539E+01  3.328528748E+02
2.619055618E+01  3.321869507E+02
2.620529697E+01  3.315490112E+02
2.622003777E+01  3.313274231E+02
2.623477856E+01  3.311121826E+02
2.624951935E+01  3.309629211E+02
2.626426014E+01  3.311452637E+02
2.627900094E+01  3.308399658E+02
2.629374173E+01  3.301967773E+02
2.630848252E+01  3.303055420E+02
2.632322331E+01  3.302130432E+02
2.633796410E+01  3.301657410E+02
2.635270490E+01  3.306689758E+02
2.636744569E+01  3.308555908E+02
2.638218648E+01  3.306009827E+02
2.639692727E+01  3.303924866E+02
2.641166806E+01  3.303774414E+02
2.642640886E+01  3.305239868E+02
2.644114965E+01  3.301222534E+02
2.645589044E+01  3.312601929E+02
2.647063123E+01  3.316452026E+02
2.648537202E+01  3.324451599E+02
2.650011282E+01  3.322613525E+02
2.651485361E+01  3.330623779E+02
2.652959440E+01  3.331382446E+02
2.654433519E+01  3.329667664E+02
2.655907599E+01  3.327572327E+02
2.657381678E+01  3.342133179E+02
2.658855757E+01  3.357533264E+02
2.660329836E+01  3.377226868E+02
2.661803915E+01  3.399235535E+02
2.663277995E+01  3.416444397E+02
2.664752074E+01  3.421789246E+02
2.666226153E+01  3.449647217E+02
2.667700232E+01  3.472340698E+02
2.669174311E+01  3.497516174E+02
2.670648391E+01  3.505939941E+02
2.672122470E+01  3.517302856E+02
2.673596549E+01  3.528302917E+02
2.675070628E+01  3.523723145E+02
2.676544707E+01  3.513997498E+02
2.678018787E+01  3.501640625E+02
2.679492866E+01  3.480848694E+02
2.680966945E+01  3.436401978E+02
2.682441024E+01  3.404617920E+02
2.683915104E+01  3.392937012E+02
2.685389183E+01  3.382810059E+02
2.686863262E+01  3.355760498E+02
2.688337341E+01  3.344956360E+02
2.689811420E+01  3.336027832E+02
2.691285500E+01  3.326311340E+02
2.692759579E+01  3.322122498E+02
2.694233658E+01  3.318567810E+02
2.695707737E+01  3.309226379E+02
2.697181816E+01  3.306318665E+02
2.698655896E+01  3.296872253E+02
2.700129975E+01  3.277151489E+02
2.701604054E+01  3.271470337E+02
2.703078133E+01  3.274605103E+02
2.704552213E+01  3.274278564E+02
2.706026292E+01  3.274192505E+02
2.707500371E+01  3.279272766E+02
2.708974450E+01  3.285246582E+02
2.710448529E+01  3.280993347E+02
2.711922609E+01  3.265732117E+02
2.713396688E+01  3.252670288E+02
2.714870767E+01  3.258980408E+02
2.716344846E+01  3.262364197E+02
2.717818925E+01  3.266007690E+02
2.719293005E+01  3.273808899E+02
2.720767084E+01  3.267589722E+02
2.722241163E+01  3.255045471E+02
2.723715242E+01  3.247728577E+02
2.725189321E+01  3.251011353E+02
2.726663401E+01  3.263640442E+02
2.728137480E+01  3.266817017E+02
2.729611559E+01  3.269428711E+02
2.731085638E+01  3.265630188E+02
2.732559718E+01  3.258579407E+02
2.734033797E+01  3.254456177E+02
2.735507876E+01  3.259747314E+02
2.736981955E+01  3.257421570E+02
2.738456034E+01  3.262862244E+02
2.739930114E+01  3.271663818E+02
2.741404193E+01  3.280725403E+02
2.742878272E+01  3.284959106E+02
2.744352351E+01  3.277791443E+02
2.745826430E+01  3.272723694E+02
2.747300510E+01  3.274874268E+02
2.748774589E+01  3.275756531E+02
2.750248668E+01  3.277958374E+02
2.751722747E+01  3.274066772E+02
2.753196826E+01  3.269094849E+02
2.754670906E+01  3.267169800E+02
2.756144985E+01  3.272936401E+02
2.757619064E+01  3.285796204E+02
2.759093143E+01  3.271907654E+02
2.760567223E+01  3.264269409E+02
2.762041302E+01  3.277475281E+02
2.763515381E+01  3.291469421E+02
2.764989460E+01  3.285220032E+02
2.766463539E+01  3.286137695E+02
2.767937619E+01  3.301735535E+02
2.769411698E+01  3.308894043E+02
2.770885777E+01  3.311926880E+02
2.772359856E+01  3.322351074E+02
2.773833935E+01  3.334678040E+02
2.775308015E+01  3.354252014E+02
2.776782094E+01  3.372962036E+02
2.778256173E+01  3.404443359E+02
2.779730252E+01  3.441156616E+02
2.781204331E+01  3.439447632E+02
2.782678411E+01  3.376863403E+02
2.784152490E+01  3.276009521E+02
2.785626569E+01  3.275619507E+02
2.787100648E+01  3.287058411E+02
2.788574728E+01  3.316173706E+02
2.790048807E+01  3.346103210E+02
2.791522886E+01  3.376747742E+02
2.792996965E+01  3.377493286E+02
2.794471044E+01  3.380409851E+02
2.795945124E+01  3.378738708E+02
2.797419203E+01  3.343748169E+02
2.798893282E+01  3.329451599E+02
2.800367361E+01  3.330072937E+02
2.801841440E+01  3.307424927E+02
2.803315520E+01  3.272797241E+02
2.804789599E+01  3.249634705E+02
2.806263678E+01  3.249733276E+02
2.807737757E+01  3.253683777E+02
2.809211837E+01  3.241531677E+02
2.810685916E+01  3.297360840E+02
2.812159995E+01  3.341736145E+02
2.813634074E+01  3.339506531E+02
2.815108153E+01  3.311891479E+02
2.816582233E+01  3.290327454E+02
2.818056312E+01  3.266096802E+02
2.819530391E+01  3.253775940E+02
2.821004470E+01  3.260232849E+02
2.822478549E+01  3.269264526E+02
2.823952629E+01  3.269359741E+02
2.825426708E+01  3.258791199E+02
2.826900787E+01  3.249904175E+02
2.828374866E+01  3.251726685E+02
2.829848945E+01  3.257176514E+02
2.831323025E+01  3.247868042E+02
2.832797104E+01  3.232046814E+02
2.834271183E+01  3.226110229E+02
2.835745262E+01  3.224671326E+02
2.837219342E+01  3.233136902E+02
2.838693421E+01  3.231774597E+02
2.840167500E+01  3.217651062E+02
2.841641579E+01  3.209570618E+02
2.843115658E+01  3.218401794E+02
2.844589738E+01  3.215635376E+02
2.846063817E+01  3.214347229E+02
2.847537896E+01  3.206837769E+02
2.849011975E+01  3.198140869E+02
2.850486054E+01  3.205574646E+02
2.851960134E+01  3.221833496E+02
2.853434213E+01  3.221098328E+02
2.854908292E+01  3.215836487E+02
2.856382371E+01  3.196517334E+02
2.857856450E+01  3.190339661E+02
2.859330530E+01  3.200426636E+02
2.860804609E+01  3.208803711E+02
2.862278688E+01  3.217430115E+02
2.863752767E+01  3.213958435E+02
2.865226847E+01  3.199791565E+02
2.866700926E+01  3.199960632E+02
2.868175005E+01  3.207655640E+02
2.869649084E+01  3.205143433E+02
2.871123163E+01  3.215349121E+02
2.872597243E+01  3.218387451E+02
2.874071322E+01  3.203884888E+02
2.875545401E+01  3.191299133E+02
2.877019480E+01  3.197990723E+02
2.878493559E+01  3.204653625E+02
2.879967639E+01  3.203943176E+02
2.881441718E+01  3.198151855E+02
2.882915797E+01  3.181917725E+02
2.884389876E+01  3.168633118E+02
2.885863955E+01  3.180914612E+02
2.887338035E+01  3.193246765E+02
2.888812114E+01  3.194530029E+02
2.890286193E+01  3.181860352E+02
2.891760272E+01  3.170602417E+02
2.893234352E+01  3.168409424E+02
2.894708431E+01  3.174454041E+02
2.896182510E+01  3.169885559E+02
2.897656589E+01  3.169683228E+02
2.899130668E+01  3.180155640E+02
2.900604748E+01  3.171158447E+02
2.902078827E+01  3.156458740E+02
2.903552906E+01  3.153565979E+02
2.905026985E+01  3.157835083E+02
2.906501064E+01  3.159615479E+02
2.907975144E+01  3.153209839E+02
2.909449223E+01  3.150330505E+02
2.910923302E+01  3.145559387E+02
2.912397381E+01  3.141240234E+02
2.913871461E+01  3.145259705E+02
2.915345540E+01  3.150061035E+02
2.916819619E+01  3.148322449E+02
2.918293698E+01  3.144974060E+02
2.919767777E+01  3.145947266E+02
2.921241857E+01  3.146861267E+02
2.922715936E+01  3.145475159E+02
2.924190015E+01  3.152438660E+02
2.925664094E+01  3.159451294E+02
2.927138173E+01  3.155104980E+02
2.928612253E+01  3.154102478E+02
2.930086332E+01  3.157733154E+02
2.931560411E+01  3.141622925E+02
2.933034490E+01  3.132950439E+02
2.934508569E+01  3.137343750E+02
2.935982649E+01  3.134585876E+02
2.937456728E+01  3.137786255E+02
2.938930807E+01  3.147371826E+02
2.940404886E+01  3.148459778E+02
2.941878966E+01  3.143870239E+02
2.943353045E+01  3.138714600E+02
2.944827124E+01  3.136170044E+02
2.946301203E+01  3.137673340E+02
2.947775282E+01  3.130857239E+02
2.949249362E+01  3.139523621E+02
2.950723441E+01  3.146143188E+02
2.952197520E+01  3.142861328E+02
2.953671599E+01  3.138970032E+02
2.955145678E+01  3.145667419E+02
2.956619758E+01  3.148411560E+02
2.958093837E+01  3.136390686E+02
2.959567916E+01  3.127805786E+02
2.961041995E+01  3.130169983E+02
2.962516074E+01  3.139577942E+02
2.963990154E+01  3.142593384E+02
2.965464233E+01  3.149578247E+02
2.966938312E+01  3.154638977E+02
2.968412391E+01  3.160055542E+02
2.969886471E+01  3.153211670E+02
2.971360550E+01  3.137656860E+02
2.972834629E+01  3.134257812E+02
2.974308708E+01  3.138134155E+02
2.975782787E+01  3.132407532E+02
2.977256867E+01  3.132091370E+02
2.978730946E+01  3.126464844E+02
2.980205025E+01  3.121708984E+02
2.981679104E+01  3.114118652E+02
2.983153183E+01  3.108146362E+02
2.984627263E+01  3.099139404E+02
2.986101342E+01  3.084342041E+02
2.987575421E+01  3.074049072E+02
2.989049500E+01  3.056462097E+02
2.990523579E+01  3.042372742E+02
2.991997659E+01  3.020573120E+02
2.993471738E+01  3.003883362E+02
2.994945817E+01  2.984491577E+02
2.996419896E+01  2.969528198E+02
2.997893976E+01  2.957939148E+02
2.999368055E+01  2.942358704E+02
3.000842134E+01  2.926608276E+02
3.002316213E+01  2.908469238E+02
3.003790292E+01  2.893339844E+02
3.005264372E+01  2.878060303E+02
3.006738451E+01  2.856042786E+02
3.008212530E+01  2.831797791E+02
3.009686609E+01  2.824597168E+02
3.011160688E+01  2.804871216E+02
3.012634768E+01  2.783653564E+02
3.014108847E+01  2.763613892E+02
3.015582926E+01  2.736344910E+02
3.017057005E+01  2.704994202E+02
3.018531085E+01  2.672983093E+02
3.020005164E+01  2.645408325E+02
3.021479243E+01  2.618039551E+02
3.022953322E+01  2.582197571E+02
3.024427401E+01  2.552511749E+02
3.025901481E+01  2.518681335E+02
3.027375560E+01  2.494303284E+02
3.028849639E+01  2.472122955E+02
3.030323718E+01  2.442479248E+02
3.031797797E+01  2.417463684E+02
3.033271877E+01  2.398007812E+02
3.034745956E+01  2.380966034E+02
3.036220035E+01  2.358740692E+02
3.037694114E+01  2.343237000E+02
3.039168193E+01  2.327490540E+02
3.040642273E+01  2.324999847E+02
3.042116352E+01  2.318111115E+02
3.043590431E+01  2.298259430E+02
3.045064510E+01  2.273695068E+02
3.046538590E+01  2.250554810E+02
3.048012669E+01  2.235804138E+02
3.049486748E+01  2.232735138E+02
3.050960827E+01  2.221191559E+02
3.052434906E+01  2.201325989E+02
3.053908986E+01  2.190650787E+02
3.055383065E+01  2.177684937E+02
3.056857144E+01  2.148235931E+02
3.058331223E+01  2.122771149E+02
3.059805302E+01  2.110825043E+02
3.061279382E+01  2.102924347E+02
3.062753461E+01  2.088015900E+02
3.064227540E+01  2.071817169E+02
3.065701619E+01  2.057580872E+02
3.067175698E+01  2.033850708E+02
3.068649778E+01  2.014831390E+02
3.070123857E+01  2.005018921E+02
3.071597936E+01  1.992142487E+02
3.073072015E+01  1.974070587E+02
3.074546095E+01  1.955600891E+02
3.076020174E+01  1.930059052E+02
3.077494253E+01  1.912799225E+02
3.078968332E+01  1.891983337E+02
3.080442411E+01  1.870848083E+02
3.081916491E+01  1.854666138E+02
3.083390570E+01  1.835037231E+02
3.084864649E+01  1.814693451E+02
3.086338728E+01  1.799944763E+02
3.087812807E+01  1.779886932E+02
3.089286887E+01  1.767747192E+02
3.090760966E+01  1.756914825E+02
3.092235045E+01  1.736267853E+02
3.093709124E+01  1.718196259E+02
3.095183203E+01  1.701076202E+02
3.096657283E+01  1.683433380E+02
3.098131362E+01  1.666064301E+02
3.099605441E+01  1.641044006E+02
3.101079520E+01  1.616005249E+02
3.102553600E+01  1.602868042E+02
3.104027679E+01  1.591981049E+02
3.105501758E+01  1.572363586E+02
3.106975837E+01  1.548986816E+02
3.108449916E+01  1.527063446E+02
3.109923996E+01  1.514309082E+02
3.111398075E+01  1.496736603E+02
3.112872154E+01  1.478391876E+02
3.114346233E+01  1.464762726E+02
3.115820312E+01  1.446973877E+02
3.117294392E+01  1.427958679E+02
3.118768471E+01  1.419867096E+02
3.120242550E+01  1.407192383E+02
3.121716629E+01  1.393604431E+02
3.123190709E+01  1.381051483E+02
3.124664788E+01  1.364090729E+02
3.126138867E+01  1.338679352E+02
3.127612946E+01  1.317623291E+02
3.129087025E+01  1.303805542E+02
3.130561105E+01  1.289922485E+02
3.132035184E+01  1.270782013E+02
3.133509263E+01  1.255022964E+02
3.134983342E+01  1.247872696E+02
3.136457421E+01  1.226255951E+02
3.137931501E+01  1.199445190E+02
3.139405580E+01  1.177558136E+02
3.140879659E+01  1.158379593E+02
3.142353738E+01  1.146905899E+02
3.143827817E+01  1.141650467E+02
3.145301897E+01  1.124191360E+02
3.146775976E+01  1.107014160E+02
3.148250055E+01  1.090356903E+02
3.149724134E+01  1.071764145E+02
3.151198214E+01  1.048670807E+02
3.152672293E+01  1.030631485E+02
3.154146372E+01  1.012655563E+02
3.155620451E+01  1.000473633E+02
3.157094530E+01  9.909853363E+01
3.158568610E+01  9.737796783E+01
3.160042689E+01  9.641209412E+01
3.161516768E+01  9.550125885E+01
3.162990847E+01  9.344482422E+01
3.164464926E+01  9.114004517E+01
3.165939006E+01  9.005375671E+01
3.167413085E+01  8.880364227E+01
3.168887164E+01  8.768666077E+01
3.170361243E+01  8.685458374E+01
3.171835322E+01  8.642321777E+01
3.173309402E+01  8.432629395E+01
3.174783481E+01  8.282210541E+01
3.176257560E+01  8.183228302E+01
3.177731639E+01  8.055722809E+01
3.179205719E+01  7.846805573E+01
3.180679798E+01  7.511663055E+01
3.182153877E+01  7.317406464E+01
3.183627956E+01  7.303645325E+01
3.185102035E+01  7.406290436E+01
3.186576115E+01  7.198142242E+01
3.188050194E+01  6.901863098E+01
3.189524273E+01  6.732987213E+01
3.190998352E+01  6.498371124E+01
3.192472431E+01  6.354610062E+01
3.193946511E+01  6.319231415E+01
3.195420590E+01  6.341817474E+01
3.196894669E+01  6.535664368E+01
3.198368748E+01  5.814971542E+01
3.199842827E+01  5.492485809E+01
3.201316907E+01  5.287155151E+01
3.202790986E+01  5.542936325E+01
3.204265065E+01  5.542936325E+01
3.205739144E+01  6.744847870E+01
3.207213224E+01  5.689641953E+01
3.208687303E+01  5.244125366E+01
